-10002.381164714443,-8070.819427544618,-7584.302885161703,-9285.907065145799,3847.0240528734357,-9400.267785452548,-9336.891889414293,-10163.679424383668
-7901.135489496552,-7459.030821840625,-7102.1638515123495,-7695.558093224077,1177.239896078846,-8046.4571443404075,-8136.995908371324,-8451.198920499037
-7783.8588172581585,-7607.696615510009,-7341.786193206792,-7721.1243921274545,-720.1961423151024,-8021.975895880936,-7800.924692392979,-8086.244190006892
-9594.263727569647,-8276.793865944644,-8048.436228271432,-9248.811638723346,-833.3154501037798,-9236.755855670308,-8570.49224757709,-9181.994310193295
-10073.474838754228,-8474.168447859054,-8421.693096108454,-9977.409850577758,241.54350068321628,-9816.896212637082,-9149.821448827992,-9794.377422633675
-9387.336726885354,-7569.764796800933,-7644.22037723878,-8766.523886793519,3877.6028395119833,-9007.756653178054,-8449.531311473125,-9107.993729870475
-7809.3110560717105,-6148.666423964467,-6102.034611585601,-7216.311552964333,6631.586851116987,-7191.863282429564,-6750.777400792998,-7491.843000643479
-7852.109140732035,-6221.803360704071,-6089.732943796691,-7662.56807604542,8507.02721688055,-7256.472394841876,-6924.814177147389,-7721.050194186435
-8137.874368452074,-6608.495178928366,-6369.590245118299,-7938.554969040109,8737.850272152722,-7527.027956470454,-7301.1213998252715,-8077.4170870901
-7827.716873883444,-6588.036951429618,-6135.304860351149,-7352.516550302607,7437.035063226525,-7119.01595625437,-7033.0890573342185,-7771.625750334715
-7180.566223096204,-6024.413166047132,-5653.269392612347,-6466.103377182502,4429.754023985712,-6360.667605518043,-6274.282054460316,-6985.264874384593
-6652.109526324086,-5591.919310638812,-5286.8997725902445,-5935.143672966908,1682.5515743697106,-5925.070772785839,-5657.796283368516,-6278.595185375176
-6637.35872792681,-5563.871786319869,-5335.527886224285,-5962.764638377499,-55.55993441127066,-6032.504301102599,-5652.264060206275,-6162.50961552962
-7091.229033899159,-5882.9105913360545,-5870.323590157248,-6688.020974233761,1214.7982340559756,-6609.787312540939,-6120.279486485975,-6588.451258574816
-6993.978339946712,-5853.040434397655,-5913.303670408903,-6803.635009975391,3363.4151443250594,-6624.210819857544,-6028.113555588483,-6573.1023263262905
-6144.701911181823,-5065.738030962879,-5139.579944103258,-5954.553928645502,6215.32245413764,-5651.645037222435,-5156.974544366909,-5759.358739618838
-5973.630363938151,-4888.465422022768,-4910.007692240426,-5871.400932390199,9143.072148548497,-5435.812128102683,-5031.964444935715,-5668.456525795991
-6171.475370356435,-4836.912235180731,-4659.942784147643,-5895.43431498573,11432.431814838521,-5537.33895250973,-5299.5071751444775,-6020.733852694408
-6321.227696900285,-4739.825480622079,-4311.756845232128,-5782.745572974876,11943.991929694646,-5583.401483802314,-5535.467482399094,-6223.267500199407
-5477.16196604204,-4091.0823835318006,-3653.732544488492,-4592.151906921645,10606.148038433865,-4586.451977240737,-4633.520689539553,-5322.993868673628
-5213.575354888366,-3970.7548500978155,-3593.962754283828,-4254.359156644787,7705.6193658571865,-4390.250228263496,-4397.149403401418,-4992.585853183904
-5080.236439742119,-4126.317188069865,-3715.9978804288257,-4168.896812776598,4937.898278182591,-4362.751937193971,-4242.008761360979,-4729.044523337303
-4989.600460556481,-4381.588279288553,-3975.8327852349757,-4148.7655051376205,3251.171249266001,-4348.384495458449,-4006.0959983397624,-4404.350482108304
-5293.2958299868915,-4588.408221697289,-4322.761998619448,-4774.731583020737,3806.0003127472737,-4877.4008891581325,-4323.926530746801,-4745.605122997775
-5799.446273161389,-4901.593934796139,-4758.23267741155,-5546.3064380736905,5473.846493506426,-5544.658384039067,-4923.873109738663,-5400.728817132098
-6117.0096244846645,-5023.413599132968,-4982.630834725045,-5985.079527927912,8230.791746521383,-5870.795678303519,-5331.654444434156,-5872.313533974637
-6921.048611829086,-5668.822337921709,-5533.592560769786,-7019.224565460463,11051.214963681443,-6646.470814892848,-6264.224239573901,-6871.277621222514
-7472.828857332235,-6305.204769479082,-6006.338736626785,-7587.33664034956,13258.842036896356,-7116.2339510155725,-6846.037099675217,-7516.078362313681
21096.37109302997,12573.10389115836,-698.2751786001027,3332.032120768068,11738.310488314746,17288.8076781134,5709.533526240499,14771.129069042654
65351.783795645126,44448.96211174078,16801.13541756582,34089.4675550324,-2149.812769286247,57699.22366541678,34393.54456776564,53716.965320395524
21266.663226856588,17574.110404816573,15447.822188293241,23695.929041621188,-10460.197226806224,21625.01857457166,20758.279644309732,22024.017438845258
21153.393293337693,17546.77240796559,16514.40833367873,24417.772794233315,-13641.478780074482,21026.0232445382,20991.117660391974,22260.88921767872
18225.681585834413,15921.629053550416,16216.580799544434,21979.01317866877,-14126.243434857111,20182.56359306132,20361.205741746817,20445.723284772583
17891.213689028766,15734.176952515372,15941.551467289202,21115.624832502755,-14145.424420376876,19645.437165641473,20034.297151254206,19978.723095981986
16655.68289451195,14678.633133353393,14891.68595276049,19310.622407771545,-12721.020555282521,18064.96748419969,18577.993387425435,18450.993571744726
15655.17210146673,13849.008509625666,14237.173417142374,17973.488493979585,-9883.007102234405,16888.15603355169,17383.016255666993,17179.055524336298
15026.783470868968,13373.487434594363,13879.841235721506,17103.29204870842,-6942.1491167324275,16174.288464665538,16540.443005214525,16304.86380222528
15132.033549382159,13507.037414800945,14064.051404541937,17201.517948357985,-4531.104303697808,16329.172906154647,16579.391747371086,16297.437769951528
14153.033434071393,12674.785757352696,13252.234826124513,16140.770643716129,-4084.039026277387,15265.915239307382,15403.91374839072,15104.785969209002
13835.102930391171,12388.046206639036,12964.869874926126,15970.886554321238,-5499.9296259795665,14937.026997838671,14972.481295184385,14742.016626389457
13869.069383286223,12308.460847081835,12948.460847120317,16128.045405180026,-8096.215945221797,14919.23207035553,15058.137890317543,14895.907581735984
13995.526993719322,12358.963512667993,13018.880554764051,16264.279563607299,-10750.008081166881,14899.550710559706,15190.108034291072,15132.567494100454
13145.263389811254,11612.655485372146,12241.522786052981,15054.888151752006,-12747.189074736874,13733.598341519246,14221.708683627745,14254.247352809194
9927.774270280759,8803.513990694933,9390.562233249344,11115.668752440688,-12906.59446580417,10017.97785150689,10824.023161445206,10785.579715657906
8019.393463456741,7056.688889154073,7650.027931362143,8864.898827419413,-11437.116028598259,7938.567233687427,8880.121551420656,8735.254657912315
7324.187351365632,6563.896525070508,7179.438608885757,8083.651460036272,-8551.319776632488,7273.773768266576,8107.750755521454,7872.078704141066
5262.6467101955495,4919.820710860644,5489.637975118385,5585.708992441112,-5736.433300027015,4970.309576089901,5680.434878273838,5401.380561676371
3620.7360487938276,3692.7615578226687,4232.095176551316,3765.330070545795,-3407.705689136125,3270.4182256752974,3892.359393849445,3539.2903033157636
2935.1423628732737,3147.2744155413093,3760.984735731894,3194.4664861525234,-2939.764533015501,2696.6739390084404,3148.2418484072405,2808.350434654916
2274.7723527274793,2377.9146892640274,2977.8131997205637,2597.269557954598,-4532.289969879494,2086.644469703693,2490.525592037622,2134.8188199449214
1010.4538197570946,1177.745806233681,1750.9579746449745,1473.4822588704992,-7089.778052100535,751.7294345451519,1230.835844042158,943.1510204065999
-1799.071072587627,-1398.5621444383287,-941.585548753399,-1387.788438699121,-9934.294693824784,-2472.865497367893,-1940.934671659168,-2078.284859948937
-2984.042007433658,-2807.347172053749,-2031.2453230364772,-2673.02949598938,-12050.227903124905,-3687.5099518159404,-2850.8793319270044,-3093.036589699739
-2139.9468192776258,-2014.2013904029009,-1305.7625019317202,-1775.0567924422212,-12006.650167802516,-2685.4904999161663,-1757.4032341478742,-2006.019337344187
-1797.5742403886252,-1578.9115486523224,-953.6634867284738,-1587.491499453652,-10195.898411656774,-2262.942370031291,-1305.77855491823,-1625.6081528170907
-1402.5231944352563,-1048.6584187835833,-395.42595701653045,-1347.2730879663723,-7085.606307366783,-1715.445888045797,-902.8412924404402,-1266.5242240678635
-1669.8685102287127,-1540.5225303137122,-980.1037850068824,-1895.0853713852994,-4427.436874520121,-2171.2333645257168,-1382.659775831562,-1815.838604893419
-1379.2916707546829,-1861.835330629896,-1464.4248223521863,-2020.7847189272434,-1952.3936807092978,-2542.4269544578274,-2013.9901864327549,-2390.6255597705604
-2505.0860032086784,-1793.3504638169543,-1641.6658897144225,-2889.357441422646,-1565.3424254873244,-2877.3978696922422,-2532.7048630455392,-2910.9679633455526
-2114.5752939953672,-1186.9890866933565,-1140.9248699912714,-2056.819994299847,-3125.6050602507166,-2192.472398539525,-2006.4459852429572,-2345.45635898989
-1227.0746530524775,-708.033969551776,-286.4398494054767,-524.7083177333989,-5823.490553716925,-1168.9101435907069,-859.4411127177445,-1276.0768618937873
765.3733201112045,912.3224987011927,1472.8321283674013,1877.0416049751511,-8393.824986537045,1028.5287378690555,1390.8878710435238,1097.4821233058465
1249.0472696087963,1145.8581960484298,1797.5586279624113,2325.839297008133,-10399.78277617009,1401.8953905607486,1951.3891014639958,1757.514877810594
1206.3308738714695,909.3996086799889,1579.946947298944,2091.958675957736,-10542.988406055054,1292.4286849799391,1985.020967944074,1796.347884958741
1554.6593705014675,1181.8314580856386,1778.397114920881,2198.481273392448,-8924.828083099477,1638.2237949689734,2361.367647129009,2152.942769659843
1090.3472532549786,859.4169005027215,1356.5474845764547,1368.2743232374778,-6169.407570552372,1065.7268679920526,1750.4484752915887,1468.5632885890664
382.7218978361925,94.42200016701827,215.6091738841351,133.55765572767996,-3313.6156458237674,-172.07853522410733,274.0895222656982,306.98722727640416
-1211.6763464839896,-1082.4756447748805,-1442.537117525906,-1860.020013886111,-1235.3244198397733,-2030.1620784171973,-1940.6761111493834,-1534.1595498167444
-808.3278423533775,-501.4977404293604,-183.4282024712884,-662.0950360876886,-601.5537589912128,-795.2835645916348,-642.5592637506343,-884.558866681502
-436.4197897963313,-249.14121796442487,177.58937101736956,8.95538351740106,-2144.9251668822544,-296.8545647326682,-234.80426395844552,-546.0664264164661
-253.25068474328145,-164.83898900957138,331.98920934264606,406.651154971667,-4743.285161390231,-89.63831852847943,53.7657834305428,-202.71206335758325
-865.737709757057,-751.9604452942149,-199.42800962012552,-235.88680557190673,-7430.041019360011,-884.5797668263258,-567.6212078665412,-751.7156398102379
-1858.1777879243746,-1584.6181509965973,-1082.4002585289563,-1400.7436951514246,-9120.047088600317,-2090.2320175736386,-1591.8357310902356,-1684.0613777499966
-2291.1446720131644,-1853.8175989406736,-1466.3936942610308,-1956.1989617274085,-8664.175661896152,-2587.538332613767,-1966.6576460428623,-2044.3501683683571
-2814.1034985006554,-2292.788873845333,-1910.7831464029296,-2718.511347691863,-7012.92430874682,-3169.4500303710665,-2475.700150819175,-2666.5483268403914
-3560.08071104555,-2916.4252095130214,-2542.7924807431846,-3710.315921323767,-4178.764111123717,-3952.07898327196,-3296.567227111198,-3626.7791262275714
-4461.876348728387,-3703.6258626960334,-3423.0493314571067,-4947.116110772287,-1248.7131494253117,-4986.993781345227,-4288.735795968343,-4696.628160201712
-5324.134901557918,-4471.943042782499,-4142.282717571099,-5858.171520119911,933.2780172032653,-5740.29481763512,-5246.780180093367,-5731.867835460143
-5162.188452899136,-4226.613836815377,-3886.059987698325,-5423.7266509098845,1466.7379908790754,-5326.525056894752,-4991.613764917041,-5515.5308198001585
-4762.012850487023,-3599.0303353087365,-3368.2704095060326,-4679.986122386617,45.985783266311046,-4785.75818685141,-4595.496041581704,-5066.288792028616
-4078.237734365335,-2962.4151119945163,-2782.944894478358,-3710.624573977271,-2688.711878136237,-4079.9036250632344,-3869.8997126580944,-4246.0310571845475
-2645.117975671339,-1775.5319862853648,-1603.1661764463133,-2005.6676565775997,-5355.4400435586285,-2553.0674377746764,-2283.569188408059,-2548.686667719943
-959.7903019904043,-549.2268098002969,-271.27664386318065,-112.01325471240852,-7028.534425783961,-785.5766501873441,-320.3872606106597,-533.0031891964172
496.6622141159896,338.43372868720326,829.9673965527327,1402.929691244528,-6910.742364578095,759.5031891159015,1370.312952128108,1203.8871332395065
690.933681780356,308.40329232928343,952.3687343995989,1336.325469041898,-5351.220054045785,972.0653177476051,1575.0610167071281,1352.856821251
-468.766736615813,-486.040335269121,220.6826853730454,-213.2044375816913,-2559.3678318589227,-319.98534007208946,204.4690913825325,-128.9901170530211
-1540.452117700872,-1303.41687485062,-712.7706132433377,-1602.4987420272373,346.58380676052184,-1488.3023576710111,-1021.9613793125318,-1474.9491754754708
-405.3416632286535,-599.4405418265087,-682.3883421619394,-1721.058895448412,2202.5755060207157,-963.6015055624885,-1209.9508947763534,-1035.0657063784747
48303.183239238526,32633.920484454226,22772.21422031425,26874.91825900624,-6481.980166136025,31234.301027670634,19296.22986458002,36818.51771006122
27481.09728949677,19378.51676766765,15549.821064238888,19415.490959870614,-3019.131471054541,17752.4026112687,12178.34817185755,21536.18886294341
92.47228802615427,232.9056474709796,749.6144504242111,1043.218077143567,1383.0088532068185,462.180189479579,621.137643653783,252.7369825183705
209.52237547296681,311.1954305287072,833.6401843976782,1233.0659156880574,-1412.897295425617,499.1588321203599,814.6262001184223,538.250965189276
1185.141952780832,1153.5944156129553,1632.8915137327858,2291.9923985203204,-3834.4121193230967,1435.0833044109459,1916.048216678697,1750.0629126941494
966.3815579167858,1015.7782422677119,1514.0049066462961,1929.7284517389198,-4094.502563802671,1165.9108088668727,1669.7821190237592,1487.8895033104927
340.2776009416266,450.17356766806915,955.247679746768,1042.3920394754678,-2427.014308145939,460.80141023441684,1084.1311112098774,787.7412790459057
127.80591986881336,294.8321987969248,727.9594141340203,537.4279238902382,368.45284711243585,227.63742000603816,829.1196103317052,449.8522221732419
-79.34525014241808,237.1616692259704,617.731991658904,148.27457017701818,3365.721641463926,24.84533395647304,509.913622612512,82.1817212177848
-700.8951659839367,-194.9717124652525,231.06513051841466,-541.4910098029941,5616.502866518073,-550.5044164934079,-254.88835942775768,-774.6438285811164
-922.7930938756617,-396.1139636024891,56.16298852948239,-654.7320841545879,6010.97392743401,-717.5196616617905,-506.495651640289,-1028.9766104902665
-216.21590382509748,182.55610807148332,692.8097277890774,453.8979335926415,4294.597701960272,177.17670855272445,308.1267491675826,-202.11001472745556
779.0170616756368,987.8798357390478,1613.5642068704474,1825.7370522708516,1532.291979536385,1262.6544276117056,1418.7024509965122,991.4112426187785
1514.8095981712395,1556.8843173698697,2218.524977573019,2679.5821406652685,-1188.7872442879307,1972.4896642408276,2195.3476928902382,1902.3192442086583
1727.6241823326272,1650.8077655142115,2179.7076379480277,2684.7303818337678,-3003.6161775988294,2055.8353248920175,2505.579911651963,2278.1866315998486
1314.067213765753,1266.6414122207643,1700.5171807441075,1914.2811225585465,-2945.925062614755,1487.7017080644437,2120.0471669312974,1887.0998914034571
-116.69339661538834,6.642041575818439,430.8215633624641,94.96969357130001,-1406.2520406772092,-175.4198514802847,566.6074711431575,230.44831358993542
-845.6711742243497,-603.4837729514693,-174.98247809727036,-807.791839480924,1365.8747362550057,-927.9546745758562,-256.3680003626214,-678.146219253249
-815.4514781834732,-487.05690963381494,-126.03655370211345,-862.5434092755022,4267.177986482275,-812.4857425733935,-278.68631489912514,-758.6314601010818
-1194.1392508218414,-653.4746412952081,-232.90916231910523,-1195.0800701814296,6355.8045618541655,-1113.4364131766488,-766.4038363237632,-1339.0423751871567
-1133.82460697653,-536.7346660410258,-103.85095930426905,-924.4205473146285,6679.851664514339,-919.049998249684,-739.6715879797703,-1276.823388380988
-1061.9275240407442,-492.5020377524197,18.417165752194705,-567.733688509441,5144.703356020676,-753.7957297586836,-647.3149935152032,-1124.2810307395703
-798.083013813739,-378.76406267996936,265.52535532184993,-17.893014788307482,2440.8725223127985,-426.08787093986757,-272.4247917131288,-694.5659759094997
-527.9183531852323,-203.93428754110937,465.22932972977287,344.0813105494308,-285.8976677299652,-203.11233467122656,52.26607949513709,-281.5005395633052
-339.1931518926285,28.617280675360234,495.2122188388894,425.6639232839807,-3209.914996367559,-147.01126461938838,259.28802595936577,10.352237253799103
-1260.169676723308,-733.1701066744718,-386.13073439466825,-899.8472702379222,-3947.4294636006234,-1348.3146732820314,-770.1079378586728,-994.5567407221824
-2146.466274833656,-1572.9244613958726,-1325.752432459587,-2159.235960203514,-2050.585830773227,-2406.517328290007,-1616.609073883621,-1923.3887569876388
-1371.415569348348,-922.0869348350388,-957.5793561766623,-1661.23442116339,676.7302126363502,-1747.4682657079247,-702.3246579078841,-986.2487861821137
-1167.4383713319257,-680.0528163769486,-595.6993075944629,-1399.6175216300471,3523.5347444182844,-1295.9060180880479,-589.2662213544681,-993.0296907906886
-2012.4495057578897,-1382.5736694079678,-1087.4118817374838,-2090.6533314216067,5781.302412563557,-1899.8672791588178,-1591.4161330192,-2167.102756161301
-1252.1922013376898,-680.0927890619641,-311.01834201219026,-992.9649524450942,6236.54708886618,-987.7942626761214,-825.8213896611851,-1318.1525062963483
-1020.0547627839842,-508.3599314963212,-16.98811064613983,-483.32787524577,4555.642066813103,-689.5258902997884,-681.0880003604834,-1093.5767261500005
-1155.2198369987018,-791.2762027341232,-158.43678849146818,-443.4155770949437,1782.72948116911,-789.8770889520529,-696.7586344073497,-1086.7261457367567
-900.7618334432482,-648.7530016402743,-64.7359156346647,-146.56297336591524,-819.2973510320298,-603.500765915087,-361.4349473119073,-666.2200208900904
-1520.1551718562841,-1188.9787630795618,-789.0534136360075,-989.991506053746,-2383.2360611076583,-1428.1170943581965,-1000.1566268485767,-1211.3205814975954
-2619.152158222889,-2161.453805721627,-1827.8324136043957,-2405.3256057152466,-2381.267907616304,-2715.1018262328726,-2221.037621298339,-2461.782059919584
-978.8476023623953,-629.6843743302306,-535.4078341479762,-561.0057379056234,-564.0148048312112,-792.082545494879,-395.815804439364,-435.67848442980903
3018.7427168183494,2681.8676334328193,2649.9488318153017,3692.1564996439265,1909.7573003375728,3678.847202308185,3663.916321405457,3760.874067224824
3262.012086587667,3064.814560551502,3119.822659906684,3888.342347698199,4429.840852935304,3881.0978868720413,4068.624378062799,3831.0241734927113
3020.274374042725,3022.689087093473,3354.482565990562,3591.841520721442,6369.912066630437,3681.3383914406004,3711.182393124487,3328.53057033816
2583.6700184679066,2724.6339968746033,3291.603347641343,3243.3687729866942,6696.861411014688,3244.5809393360105,3188.5069404491223,2783.3303801547445
2123.879525712313,2321.7792294617393,2927.066361941892,2919.0079914493253,5008.088843633479,2752.7384408383514,2651.1601317593595,2263.474230977794
2423.594184988644,2528.5421643123846,3172.902818338145,3466.946618918242,2190.473855080869,3042.533038865018,3011.371341895894,2707.857134085323
2355.5786962609855,2357.192203653234,2986.5518792639923,3305.668724434421,-569.618347485346,2781.2357904675882,2943.662116206222,2724.7888397398347
2047.7462131947686,1949.6625006460818,2466.42094903432,2804.4738410635036,-2144.092765332258,2285.319730290619,2653.0800069659017,2519.314791911369
1006.1508911178389,1039.2715676864318,1363.3888699858362,1347.4292353315977,-1812.6622511703463,1036.8814621846832,1526.9471838706813,1393.0227380641736
148.52441251368145,340.936262453004,604.2076490324835,212.52927595211077,-31.867298619443318,112.27236820792314,667.0551685038081,483.12949179889983
-181.37353432443342,117.49520038170158,391.0805536663829,-193.5313228185114,2836.3220752174384,-120.70233149631531,300.01622474292526,19.54928309225943
-332.757254129363,23.054434540797956,424.5184746765881,-382.7201158948883,5718.446410392498,-201.6883842733223,68.85807217803085,-286.61079728847835
-232.98106715848553,182.40810241058352,616.2485035411519,-138.0848628891399,7828.88576570616,58.75945749232778,158.14414083657903,-172.17046895783278
913.8808691282466,1155.206604788138,1508.5733359984151,1361.0738026316976,8001.153985607874,1472.9485194538138,1466.0422609532543,1151.7529571319465
1370.7024589059583,1574.6296735359065,1978.6176500065194,1911.7908258513198,6469.6920055740775,1905.3340897774033,1816.728304030752,1510.3885695507925
1311.2777594391664,1557.7895811957133,1923.3593388336012,1952.6510445867316,3767.530715401823,1771.7830858195666,1783.418698650843,1514.885202395555
1285.119738456764,1485.2287444743852,1832.5594039116404,1955.3726316028624,1054.381988420122,1648.038147601299,1755.3006411570823,1618.0417782893346
507.48911734856665,526.9081655233458,939.8497763398627,997.097931125696,386.8543033562164,682.7169138269091,934.8499103365466,868.2317594446649
-434.740569485235,-501.173528433952,-68.886738005589,-183.4591155037342,810.0938493371359,-375.25020424617105,18.852978342591086,-99.1852630940848
-1391.0037054678833,-1314.4686877271452,-1051.3671032791608,-1526.0875344364613,2548.5424196291133,-1536.243906571006,-1021.9948339499242,-1167.2058407859004
-2150.877604891866,-1865.4793479991786,-1638.915545687778,-2479.504401943792,5337.766544809259,-2314.1486218682257,-1899.8163809989346,-2147.7923530247062
-2681.694432981196,-2235.5945493882755,-1973.5662769791961,-3068.075181907974,8189.269888497511,-2760.2058200072497,-2497.002553683298,-2849.093140497571
-2361.850685800164,-1848.7639051358856,-1507.6299782765855,-2559.396731063578,10216.4460547419,-2239.4998405122024,-2105.543881435733,-2554.1192895722343
-1747.9382133362524,-1082.5540274686937,-812.3412757024926,-1767.8014703886292,10476.437048946493,-1503.738884246297,-1500.2152494100737,-1903.1154429004528
-1245.5350039517507,-385.94142075354466,-240.03539699588146,-1019.0471699448535,8878.630710947094,-933.0844979376707,-1003.3507683428761,-1342.9186167948646
-1642.460926245869,-755.3550921551068,-559.5232390910678,-1276.8335190474172,6043.750411130561,-1406.732543282269,-1413.756414529751,-1709.3286912562617
-1995.0344590703025,-1270.9899489904055,-1069.406062671711,-1693.5027833705826,3545.6241337237734,-2005.0153297984216,-2014.9853944501665,-2158.1794432111783
-1694.4424425539328,-1461.4050022673764,-925.1397236064076,-1089.7579884241277,562.7174392155866,-1752.2104319071514,-1544.8011969156214,-1642.2390649397857
127.47918767188094,-66.6054565954255,578.9475699832983,750.3075027717568,-1212.2421443328494,517.6668165586598,850.3796169260459,703.708437703317
165.55971002060687,-4.38159247157455,502.55019931281277,502.3729613100004,-207.78084844937257,409.75440906352014,825.1166200730077,626.5303138467716
-275.0973569280177,-178.80698257191398,276.1036320053827,-154.72019141493365,2709.36001351694,-136.10653704113793,198.8987300392473,-72.21217491617426
-1034.980454861361,-875.4939160655485,-272.9061272018007,-1106.7562113111198,5442.749348137688,-927.7630701749003,-742.3930482856231,-1075.6051953050483
-2568.6603725450113,-2116.0963768265647,-1622.9503936625697,-2846.3380463956564,7359.52934370673,-2499.995597577945,-2441.3916257260134,-2838.3101882846386
-3603.2694029861887,-2990.053956568867,-2579.7468521917326,-3994.84477513365,7599.533833298876,-3548.990812574164,-3491.751203078078,-3895.155252525583
-2680.529307877354,-2270.528128233971,-1780.0503767173068,-2653.957751083246,5926.041507398091,-2422.232767630747,-2415.1946680836554,-2796.1348143420473
-1952.971460458677,-1671.1440263018885,-1083.055291026758,-1568.690871517727,3100.6831307104803,-1620.5307295035454,-1600.5778530802636,-1897.3885604020033
-1429.3467111019418,-1242.9898429944442,-647.6185168997763,-881.9927351020742,535.260237603492,-1105.9663791667845,-985.4543642357166,-1204.6442006880825
-2219.8810557973047,-1927.029962924411,-1434.0783041788964,-1891.2792233413784,-1047.1315158711222,-2099.8935528222064,-1830.6065650722885,-2016.5235057132377
-3343.404552311229,-2876.9386514657235,-2503.7076388730347,-3288.008871159429,-1337.6396219982125,-3412.5767540966626,-3057.2516323008604,-3253.9666951486433
-3720.212203484756,-3217.7904617908935,-2844.904039422967,-3852.574947465415,447.15806131472345,-3836.800753896692,-3400.9615971715393,-3647.2845985511667
-4528.2997210629255,-3800.7418196969957,-3472.058888639571,-4913.037706396135,3304.3720496396127,-4722.910660806112,-4294.785322896714,-4632.274415122869
-4999.366278643734,-4138.7979439617775,-3842.0803576069156,-5427.5506023315975,6003.131566293498,-5103.040062719374,-4799.214663186081,-5233.279622283735
-4833.476435262157,-3951.3825941589603,-3574.7797534975834,-5112.438947423027,8078.891086930649,-4756.067762674167,-4700.371414946552,-5163.61757136292
-5582.751442669323,-4585.5618768753775,-4208.327875982563,-5879.904244615318,8145.919080533247,-5540.717948244041,-5536.211168990703,-6024.46786048486
-5997.372325673932,-5033.343869170421,-4624.578609876844,-6149.11464984878,6319.474191922968,-5935.664808720001,-5928.195223750983,-6424.359446783172
-5680.68315546769,-4865.245387595933,-4440.100527241928,-5603.19243273123,3560.435428518408,-5549.581308407302,-5494.309266783661,-5910.606678491924
-5630.150028460979,-4813.838309868617,-4398.3338806812535,-5412.586032245759,884.4710748662824,-5551.706552985343,-5439.958792517034,-5753.9620834506495
-6170.07703405412,-5296.075916947462,-4974.886469481542,-5986.77263566191,-892.5035543005116,-6230.6895136568055,-5974.099365010101,-6368.87573231323
-7593.837253139573,-6509.986676152665,-6165.886749213736,-7793.481295967751,-1269.7108585600404,-7855.437523355125,-7436.967723458991,-7778.43131608986
-9141.260782868907,-7911.678410376619,-7556.775053729623,-9760.33295813245,369.11858536454235,-9567.6994352404,-9076.089193044376,-9415.413797418601
-9384.0624880389,-8123.303534949373,-8102.579685324359,-10663.17107289948,3086.2629490261834,-9807.830178223252,-9862.5919067192,-9835.934447489752
-10608.253040136275,-9172.964325956244,-9184.270641350711,-11862.403331998117,5910.997125158801,-11087.184727261585,-10961.170757833963,-11263.646554215717
-10223.807891970973,-8725.734396499414,-8575.476671998447,-10996.590100392074,8017.239777222667,-10387.720077589453,-10230.595167589032,-10802.324773113389
-8160.051597625679,-6879.707115047338,-6618.741871308164,-8325.885268347196,8225.212335699496,-7896.277441904851,-7891.661115424991,-8509.652843855773
-7079.1769521272945,-5953.391331888302,-5649.2010191740155,-6930.955052960231,6456.089144027603,-6665.531055046144,-6851.345021853442,-7399.672846090656
-7027.856811428022,-5980.89741099666,-5688.581668239083,-6747.980072802533,3576.5704888935215,-6616.801743189102,-6713.727907448925,-7190.833981076106
-5906.224093069213,-5058.217668746227,-4833.525595251358,-5492.526064874932,786.8620905958815,-5531.637277328042,-5407.648008417245,-5752.173058391583
-6211.154647661178,-5335.563399239453,-5132.216637609021,-5986.462431013903,-2094.0311393404554,-6079.159250131721,-5705.733128583056,-6020.18768493356
-6702.585848550414,-5706.873237576567,-5577.5709586248795,-6657.74018538621,-2639.1614448948458,-6669.110368172302,-6241.201278024689,-6500.852443169799
-6402.413687984509,-5489.696919321151,-5372.1706604244,-6491.42949222161,-780.4182855407307,-6331.266820934927,-5928.966392547611,-6237.831263964827
-6708.226280467472,-5723.470367888955,-5582.754832067595,-6978.114312147465,2048.5974080695814,-6587.681703612634,-6310.51544195759,-6739.0638723760785
-6939.349560058396,-5844.128425769926,-5670.401327391821,-7242.437754913084,4873.84987249332,-6710.901316309464,-6550.11140765876,-7087.6246086460305
-6510.097755670489,-5333.015053543262,-5140.438168155457,-6666.741415138054,6764.287121430578,-6113.612882560505,-6155.197012784607,-6740.183977128967
-5287.034424123634,-4236.948916371017,-4093.428498345631,-5199.46132505967,6939.236038425559,-4722.568422424993,-4870.557450458946,-5402.036671942966
-4992.7404930009,-4014.028418236536,-3829.5379136062293,-4751.201104029562,5218.042343312729,-4432.806992520134,-4668.589893736003,-5126.95961666837
-5484.822744578894,-4529.187931409258,-4289.032080411347,-5182.99065671624,2354.2532280831947,-5054.998616313278,-5217.530630472982,-5595.273374784352
-5237.139651361002,-4400.136346129053,-4094.693984933234,-4793.648851091988,-649.103875734254,-4794.057931573203,-4838.93787285281,-5152.509001538798
-4703.907422981392,-3980.8056560587647,-3665.314606721502,-4213.351274671302,-2762.386136714864,-4278.553923970365,-4165.648043450579,-4424.420853765725
-4410.275350527896,-3736.5615690714476,-3500.8017675260126,-4116.184030417717,-2678.293787075476,-4053.379451802255,-3846.4778195110484,-4077.711445111083
-4641.8358136878305,-3931.4705644060596,-3732.078422361985,-4599.800710125564,-748.5278754519532,-4398.82452317141,-4132.410336073619,-4409.048190350208
-5199.917991426344,-4367.39961815381,-4206.139933714272,-5396.397448369396,2121.1596585946754,-4975.375649351692,-4787.388551272481,-5164.971322543766
-5082.612958444239,-4089.8292716289943,-4084.0947952618153,-5380.539417604203,5062.5912058268,-4774.743180989506,-4724.50496461014,-5157.540849735771
-5222.24023712863,-4047.2665418243196,-4115.3356638971745,-5553.190768938628,6994.711588727907,-4906.330208504747,-5008.927035285509,-5497.069158080121
-5004.11170505191,-3806.5917612556295,-3846.322792642888,-5080.781888571684,6974.824795192057,-4573.546748130553,-4771.200770750787,-5295.163016136052
-4805.295478281041,-3603.313581572729,-3445.4152807839055,-4530.587582421707,5281.320483767282,-4300.668605941086,-4653.5924545835005,-5065.614424073734
-2145.8485261767946,-1669.4452117186377,-1516.5256293000702,-1859.3236827825785,-3797.659139395191,-2374.540060744394,-2394.9708745753574,-2405.8865814037613
-2165.3045936214558,-1903.221304025509,-1800.1060797353266,-1864.6245154816907,-5855.333202272179,-2442.4071224296736,-2290.251768069294,-2252.2525620852716
-2440.833786774454,-2324.937983663989,-2234.4310528549486,-2301.5359579670985,-6550.359171674298,-2839.812318441791,-2483.255142227863,-2383.688116027727
-1763.625065667943,-1860.7880928884615,-1832.653880272509,-1689.9961670360635,-6504.346334897224,-2102.2862249182954,-1687.1534054721624,-1566.278922858306
-670.9763914367431,-905.098668834009,-1067.5425116530705,-723.4140713705347,-4611.42476121485,-924.7762531853805,-424.51924002738997,-358.2327444585735
-1068.5116384803532,-1144.6591489586663,-1407.7660697419287,-1396.753362724845,-1754.4257432747509,-1378.5401738920445,-956.1816651331774,-996.975259272318
-2069.652651544964,-1939.9683725756768,-2139.621483855175,-2589.2308559815756,1122.5594107024153,-2435.5576527593203,-2131.4813277932208,-2256.7532072027043
-2498.301952168771,-2150.118932307858,-2248.834676549459,-3022.6006883305326,3107.270849816239,-2822.040365628547,-2673.3863449766304,-2813.823469337922
-3497.465445110265,-2926.171091374932,-2975.4219855711344,-4030.4426272348774,3028.99313423278,-3867.025766384224,-3780.1118149973627,-3975.493921155792
-3478.549561541484,-2834.074671481656,-2896.973228858944,-3738.0371212172977,1163.8208590376307,-3783.989301963229,-3767.400513152661,-3945.6089433177513
-3333.1496915952994,-2775.451589688273,-2852.9092071756204,-3303.9138877463192,-2129.1463731811527,-3654.619904888321,-3606.235244142583,-3656.7251896003763
-3191.6513469958772,-2693.271024288966,-2760.27479355588,-3030.0151873046307,-4834.270053363143,-3553.9733585654176,-3391.251908921553,-3387.594723856877
-2418.0277755622774,-2083.2648880468514,-2153.836453105836,-2141.767322332231,-6636.234019082978,-2701.321495783948,-2404.045189184253,-2338.605081290956
-1349.1926924467662,-1265.743650939934,-1375.7479095845774,-1096.5937094210094,-6286.635385727292,-1502.1159967174754,-1149.880204349989,-1101.7967430558638
-1564.0403014466065,-1535.9417212834378,-1602.3916351081607,-1616.0714260738241,-4428.970940011481,-1801.7364112721189,-1417.8133559603884,-1411.899534248514
-2158.346083814191,-2003.8212201898968,-2115.7108503203854,-2582.880021221623,-1579.0959724468412,-2467.324765051497,-2103.750057288984,-2186.5945471447485
-2510.6776761701694,-2268.3994344696184,-2435.4128656242756,-3082.0827569587564,1188.1323962105234,-2784.8243839009447,-2511.2513578356156,-2679.3076145702
-1927.7339901769665,-1657.067209355133,-1785.1535423001187,-2235.3774368312734,3112.620988786839,-2034.6834546130194,-1980.1412350894461,-2152.129202017386
-1437.162635891742,-1035.607739985011,-1259.5880181758912,-1591.3551657042553,3203.777395957397,-1444.7522432674305,-1563.0098632771405,-1589.3746838187508
-2310.3893465205692,-1808.6721684283111,-2031.2495291269151,-2430.7194321250863,1288.6637803977646,-2448.5211657386244,-2554.0756490148415,-2534.4193893907795
-2268.005678477275,-1791.3621561639957,-1904.88362688895,-2039.675063522409,-1387.027094898076,-2398.2942101786903,-2405.4944684209986,-2460.7264456050543
-1656.675908954232,-1168.0648327582676,-1310.781293980588,-1231.3986747412637,-3883.469293780792,-1795.1201950135655,-1717.541549385911,-1698.6593294171835
-1321.3200707911456,-1013.2119982599324,-1164.0063673038385,-879.7660926691315,-5326.5348766965035,-1469.8627403034916,-1262.1802848133593,-1186.5948457309933
-21.102794312304468,-37.90986327057908,-182.77537389368808,423.6666963479802,-5369.930750586776,-65.04077529317874,201.15294950229145,281.2492963112454
225.2559759911892,-53.62218151072011,-45.05948977435037,421.01317689754796,-3490.0958364220423,100.84689508916199,455.0914290358269,489.82701809673745
154.0641797751523,-181.88241942520835,-83.65520977778942,118.31868370960728,-570.3395742565262,43.39361275653209,320.6542089129289,302.3382137733497
329.5449965696389,70.46771811055805,35.49619587072084,102.62469717317435,2317.1726443536973,318.25759293982264,535.9631806573816,416.08135157743527
874.7614055951635,750.8872291528387,545.6702956892404,671.1935321708079,4401.066428351776,969.2127170912499,962.2562251101699,872.0344585349376
1576.061987654306,1343.3081878094454,1001.8088210478963,1661.8640894119599,4383.468886610506,1582.1973153716535,1174.5433585052378,1667.0577360255847
1832.3539332209912,1687.7855433251098,1434.1558505523499,2149.8889048132114,2490.8722523190736,2054.7712120413635,1779.2634912762733,1903.8392279758482
1816.8895323842808,1451.9219061844778,1431.1542590126119,2341.7779299361937,-464.49374867529696,2088.7539949138445,1977.46144844815,1992.5982362560535
1747.690864403121,1322.2065370767596,1537.8267448218976,2420.815562763135,-3246.834262163051,1979.9714701426128,2015.9156427212802,2073.8229766767836
1995.929959093235,1556.1639164737935,1788.3771991937683,2653.872950514,-5038.803846681061,2161.9592544138577,2335.2460978914314,2492.4775239589144
3390.009261004292,2760.60215687651,2946.5018925786644,4020.9032165765457,-4559.649274438729,3588.8921142214604,3850.8117085515332,4006.061463227823
3816.369721367966,3113.1492187457443,3221.1257039501215,4179.141960478188,-2518.4125905981564,3950.20732433792,4310.173185443469,4395.666592364079
3777.5124977790438,3140.50249250295,3250.793268078549,3902.7515855831552,444.10399651899934,3859.671492732894,4141.620707762759,4161.782211456815
2808.8209113159246,2414.0523540801332,2511.689896227341,2671.099219818643,3190.6850014800293,2801.7440582729832,2956.3218635339217,2922.526176081079
2734.406034791904,2491.6403752729348,2523.8699280232177,2584.5876745761016,4922.1973266303685,2802.1385923715497,2720.487297830743,2697.8688654488724
2139.0955354020916,2012.4902905878807,2079.408354939809,2075.9462460297764,5036.909741064454,2181.482176151363,2052.49262198438,2020.0471562414896
2116.7251802757783,1948.0476116842074,2131.180116194453,2362.003698191722,3210.9978717687773,2218.658387755495,2001.7555071554925,2018.3598303546023
2363.6497390693494,2082.385706293164,2312.220821860574,2852.621534302858,436.5388192515238,2480.8944109322765,2344.1026878067696,2418.421343283122
2685.7861494970966,2437.186752497648,2586.829697199859,3259.419632981684,-2644.5246258460757,2726.5344331334054,2678.3239304454273,2871.801294040988
3310.946883821258,2931.3211267721545,3024.2021490798797,3863.0437623532735,-5369.347981650149,3283.6529352259768,3441.099237251141,3678.22379341385
4188.386648394013,3618.7431389935136,3696.089376419347,4691.169484471474,-5124.380818722275,4151.294939669022,4414.419984077078,4655.043657821396
3698.608922486498,3070.7275730022116,3144.598738915732,3829.401322184365,-3371.6892683457845,3570.037702040978,3886.342380082362,4038.73133837189
2924.8004881085317,2351.6921963504437,2432.0787476032947,2716.835317284352,-510.49305863708287,2792.050202271438,2979.7714422105723,3054.4470688990477
2044.1900186738167,1639.1546747903712,1768.8811264188907,1741.8281134698173,2361.6913335360223,1914.2649983994254,2023.0546912326135,1970.6603002537995
1735.3160335654757,1528.2038313290634,1615.249274701853,1427.8698975933912,4183.129885932765,1664.0231246072808,1609.6419082216917,1524.679057899648
1762.327977442058,1591.403419055658,1655.97254076453,1578.4254835059583,4114.0634290783055,1732.353253825808,1612.5193294334094,1555.004073123083
1988.5439512907224,1769.843452478236,1894.817108392962,2068.966536295953,2292.9349647476047,2043.490735216349,1821.7299948648697,1831.3651763773723
2206.3653557238576,1881.372929027033,1970.6734136130772,2440.7987988386376,-474.77684499899624,2289.877197995135,2162.214184664659,2228.6104870888103
2543.4430486623787,2185.595848027747,2262.3745784314415,2928.9289240483504,-3255.0592511627183,2558.6447315184996,2594.270888729763,2710.0947416196905
2678.039355622095,2356.3270682972216,2318.98191184146,3020.2391386290437,-5040.996069715344,2571.5279407958515,2794.342148202846,3003.1461260916367
2177.783995989277,1860.080515267875,1784.0914124867613,2233.732930721031,-3048.5818711692627,1914.4345038974316,2248.4992371091284,2475.932741603574
1455.370217662934,952.2454655458369,997.3533767554436,1162.0648517804984,-630.0248991448607,1084.014767412731,1534.6143541350211,1642.9928481900315
64.59486089875645,-258.9328669932238,-78.53341111498048,-476.09044316247673,2199.0456614795403,-372.22165995374235,-20.143749457649392,-11.134028429300088
-787.1350043713464,-807.5820914719752,-641.2718657127407,-1438.0766549018263,4841.925810325018,-1174.362652662683,-1014.8918654708614,-1069.7381606955605
-719.402249548395,-605.1440536819991,-424.92249879836527,-1190.8179023857665,6836.237301691741,-897.8527921262485,-983.6135437683479,-1047.0881042023175
-446.73847896312145,-391.01429964571435,-229.86520077426576,-790.5928427074941,6807.374489280424,-543.3249157498994,-687.3637605901858,-746.4532879496765
-1322.1813956436781,-1170.1100346985932,-999.0047536193833,-1577.1544931223798,4838.786515360167,-1525.8246636779731,-1653.0113892098016,-1689.7996892845222
-963.9989253903805,-949.4510091645989,-816.3015787623535,-959.1860966759377,2226.5899899452415,-1106.5545297810932,-1121.295409137343,-1106.0161527783748
-371.8025187455478,-499.89788729692737,-421.4133319042121,-285.2766572781802,-743.0708394783069,-526.4245388906838,-460.3267282316265,-340.4719961093797
-1546.774884059987,-1439.8038845025112,-1533.2722523218017,-1679.1051028353286,-1782.1374373785948,-1936.6861468572251,-1665.647529310323,-1437.8848945981808
-2190.035458514438,-1953.1447413580627,-2134.7489407983076,-2428.201740911263,583.6276229246869,-2624.35733594111,-2282.2449672443836,-2005.0686422196668
-2552.1371582467273,-2410.4358278334103,-2550.0309387221505,-3031.05062515823,2964.481030875424,-3001.6822184496314,-2603.894375314894,-2535.802763521806
-2897.0181915969515,-2715.332824769061,-2857.044179867362,-3568.3181513001673,5887.670730796708,-3298.888470687581,-2974.369799799778,-3031.313200806778
-3724.216584391904,-3336.320620498509,-3369.4825900222004,-4551.80757512964,8681.898914641793,-4175.406825526512,-3981.516839372586,-4119.8467781355575
-3355.973553458918,-2897.7358203772415,-2857.918697458793,-3875.3329709934605,10535.524887502252,-3596.9891945742893,-3551.850107727172,-3721.2133810424366
-1241.5297476199098,-915.7550772957502,-863.2280638918037,-1251.2270415619994,10476.513300787417,-1089.2665144636812,-1317.5520915621014,-1410.0925761185433
-392.3967533173677,-42.74402558964721,94.18777860568389,-159.79435453132646,8259.651207181352,-117.47561066721573,-466.94606378002163,-538.9695377908652
65.63001103674924,271.5373912239311,314.90277492280075,516.0865237926478,4849.467564522414,102.57144966345186,-97.1736197512314,-12.237676026045392
1035.1715167908098,1046.3967401146915,1127.3714876842223,1667.2271643306594,1584.255034036927,1058.922234371763,927.2184912634093,1117.2904810864584
-912.214524067617,-636.8895299898581,-522.5284464527331,-881.2418222202836,-57.54112887510564,-1087.986158584321,-929.7732306310936,-785.7508527064953
-1724.9298811165022,-1571.9504517286805,-1369.5844119809672,-1823.7440917393699,573.8366318167609,-2039.1621632987099,-1765.306583289625,-1646.1111221250512
-1287.465839363943,-1462.4173825052112,-1290.2280436176015,-1534.1944412956618,2387.533343089821,-1498.0492971423682,-1184.0406116143513,-1122.413240731887
-1098.968806231862,-1325.6585485130045,-1187.4443889083868,-1436.860798698539,5328.292919991349,-1162.6905515927865,-945.351111863868,-978.8122151710877
-1166.850223465287,-1261.530343040955,-1185.987716013843,-1581.3783528914455,8157.9245868635335,-1159.3951451900357,-1036.1258196714325,-1155.1080187505004
-529.5211215702275,-522.9245158709273,-522.6201811148003,-845.7535279513013,9910.161319438295,-409.46668158807006,-504.28668336253577,-601.5893857128376
143.69126227948254,108.37808734648934,84.75568736965943,-28.008200217866033,9899.925803998958,355.70253442764806,173.7519850062563,53.133894722550394
350.1395912177031,263.2104533584479,187.89885759993376,332.0363689061378,7992.713720807224,536.8980303592689,300.26257005156003,261.14631380420633
671.9288851838173,515.7634608601275,382.1083673272551,816.4286209712818,4869.306371606486,828.6084272667958,691.1481760021534,722.0576920390977
698.6228972972594,547.4230943023194,450.4924031582468,889.0703111490393,1146.4070547108568,787.5308470369382,744.6372527775547,835.165267875861
-439.19187834308104,-380.1023051636839,-523.2786600143409,-456.2890150538642,-967.1559015348466,-612.0202258860481,-480.1932734455513,-356.33877648735506
-741.4829162906299,-535.2269565372062,-657.5691658860105,-615.9208638204964,-33.01400863369054,-983.0095744196133,-849.0176656224312,-616.2834268321803
726.5641953198437,734.1483563241109,618.5536668548302,1253.0777260327486,1561.1852802781505,569.290473594463,580.8251339753433,941.6944872393051
960.264601686772,1203.0621472393768,910.748939140235,801.6223871628526,4519.083120552343,853.8193314707096,1024.7807101602748,1003.5829609383418
22.178381537786663,317.2860491386673,79.6377842842603,-476.3990708452293,7341.820921010687,-147.39966966234715,-27.352580192256028,-159.0699501412564
-880.1265117425228,-586.867282514685,-620.66278293301,-1383.5560731124542,9152.003346456273,-996.8053097358588,-1023.0528532404251,-1217.7447496215154
-1024.1437896963316,-946.0511886367458,-716.4617913080601,-1305.1090511272268,8807.581430057442,-992.5552074077532,-1130.2876418271826,-1315.7851500280258
-1177.2281442741905,-1275.0735053609296,-903.3731370956357,-1252.0756069797953,6711.825095178734,-1056.119333333958,-1258.782325644268,-1410.2212869805062
-939.5777224826488,-1077.6818039916361,-796.0339975605184,-841.4981411799981,3879.55126426644,-811.252478755312,-903.9874985945498,-997.6564462841852
-189.03228812217458,-334.24630815712044,-125.14027316228203,153.66251686493524,355.24686870345613,-45.560981440714386,-71.9217946362478,-26.43933882017336
-83.17686774290996,-140.7537805631,-10.713205456504511,196.56252259162102,-2100.270720215398,-109.07486894265458,-21.627649397489222,125.25046264520643
-1174.2268035716115,-1135.7437454489063,-869.9467546601572,-1217.231176402187,-1040.4042278618435,-1568.8038877214567,-1381.220655251378,-1183.4253557315442
-1771.9707569825223,-1755.6598233181685,-1400.8126464053257,-2135.697303870027,1007.6987719943136,-2427.2495360350513,-2146.138818665342,-1919.6763959831096
-2337.0619523625355,-2058.6768625915283,-2056.949912899967,-2910.8432402469043,3909.2512771991023,-2640.3294077552637,-2390.8854354673986,-2486.833015370017
-2392.2041902778674,-2108.5846788468916,-2160.6994281951775,-3105.9405549068215,6723.846399613132,-2600.8632953455817,-2430.7375099981437,-2622.7803636359076
-2010.373178083406,-1767.4080198589472,-1769.3529382998968,-2562.133870010959,8465.128129717748,-2007.3862091308874,-2009.7872945490308,-2264.4268137826475
-1314.9261422674936,-1053.5454224380956,-1101.3340919560687,-1601.0544694480304,8320.394685741354,-1154.4526290624053,-1319.3282550014046,-1537.4824673704607
-715.5473697365196,-482.7192888516911,-509.2744051151276,-690.854402586694,6700.205374590994,-495.2700993113067,-779.7340156656574,-889.8568774624036
-655.2406564231351,-586.360402594466,-496.11560312014626,-385.4727348535707,4521.949895051308,-420.39314082544297,-631.3008507912782,-676.9344142753434
-55.00953994939482,-290.60555175214176,-26.474073597073584,416.4297544038236,850.0727527220442,227.21346681054274,122.29801149798732,135.76552991973222
-568.0518719483262,-698.4979023176893,-495.8329117530666,-319.8732984222297,-1875.7048836493632,-495.94196572235523,-430.7327422412927,-360.52811892503087
-2466.5186214893474,-2281.1372575779205,-2129.585092480018,-2760.1971426640375,-2785.0628335995716,-2761.7079564793603,-2553.358091452392,-2500.539929282597
-3682.2014710293042,-3384.338254134098,-3291.553692615398,-4333.909910052589,-845.6562949511863,-4089.184775099151,-3716.6598613118476,-3780.8061392129457
-3769.790371120598,-3387.0653260949293,-3333.739797384973,-4499.160028349019,2115.3545195209153,-4094.4751235336444,-3852.87947762162,-3987.401587869892
-3772.0964032423362,-3324.9783859154995,-3295.9116927910763,-4485.932019491454,4897.323576504015,-3999.0480492574934,-3914.4771627190785,-4122.921829814266
-3477.321714761005,-2956.245418641338,-2895.461014677385,-3975.350156750159,6773.657531723555,-3504.4751314766763,-3609.838856660979,-3888.7524026577375
-2520.4786827721546,-2087.399952607004,-2100.7645117334105,-2679.4430624310844,6600.640817005129,-2398.9285804849205,-2668.115678916358,-2826.6549455725108
453.0162534118208,347.0672477156404,-826.5682046796428,2088.4134215260783,5372.026969091297,254.8071239195997,-929.8125893326287,286.3255809484617
910.7321762949723,690.806954846892,224.3240939602183,1954.711865743353,2045.7234742039,1131.4523834659267,321.10001067936537,978.3527208938613
-190.530681287084,-186.77679217963305,-54.210577269761416,301.6229600163715,-1442.172969524865,106.5627049711984,5.075079727728735,-8.693810877506621
-96.62828076636652,-113.8321160637206,-30.942807091458235,262.8499540415287,-3973.1598224195186,72.99890280503314,153.57687977483147,210.6718816463108
-488.78935307748907,-421.151655463138,-313.8597981078274,-356.8550434534991,-4344.030713772896,-429.8801951021451,-261.08556530788337,-220.29807931258983
-373.0814428078593,-342.7514975516169,-263.0471358383875,-366.5819462408399,-2292.182029831718,-289.6195069696041,-79.01688758816454,-134.18421909839526
-66.70004319615691,-8.647787299159972,62.58241947590432,-137.99707073927857,612.0958509608754,66.08248518710025,123.84210155670007,13.19568538047315
-1257.5395188145121,-980.5398459005883,-910.7526865573964,-1532.747862366843,3421.4243130613468,-1176.4289056044581,-1250.6177670717952,-1486.176530109973
-1678.3164401332615,-1288.411947537672,-1172.2090747455586,-1921.8950517103367,5068.751121583278,-1518.961332127401,-1773.11856515432,-2033.1204762738344
-2454.3329428591387,-1935.2840152806384,-1758.0031806075858,-2710.3419397446633,4867.5353495883755,-2304.947720298718,-2620.315816540038,-2856.7580798811905
-3184.617775480081,-2613.9922102448036,-2422.868737361183,-3385.192461096325,2579.1404388435767,-3083.021096821103,-3374.4826746333492,-3575.5504583390066
-3329.153707031066,-2840.854857849983,-2624.013081518773,-3292.214214282656,-662.8794867875404,-3210.249700173801,-3418.142590802716,-3574.0887632541926
-2482.894737904702,-2156.15644617645,-1960.61021081145,-2267.7473031352274,-3677.244779962697,-2360.748073577088,-2426.7803049857175,-2483.0597563225165
-1354.8377523274394,-1189.6449011616714,-1057.1293363022414,-1037.3635128833484,-5912.118424337183,-1200.5594533311378,-1080.7606928057503,-1068.900584685689
-1261.6180960007478,-1085.4975456141328,-1020.6021463697616,-1144.50924437934,-6476.199371163646,-1144.1934358160943,-992.2482971326026,-1011.3654001543473
-1372.3429147643183,-1203.3066927676919,-1139.8146643859,-1511.165750989072,-4408.0051307721005,-1299.5158973048965,-1124.5977351161418,-1188.4541574914474
-1216.2109230167553,-996.396347496906,-1010.0608315558857,-1439.8949975091673,-1349.9162297194125,-1093.9967041248601,-983.9736235866294,-1140.138831080556
-1393.0134446541852,-990.1550490386726,-1099.4333211626654,-1688.067743041509,1498.616844959266,-1269.570927821187,-1303.7861035174283,-1520.7789822160194
-888.8449889785406,-313.06113779649604,-527.322943601328,-1101.304969889039,3270.6333960359043,-664.4951589792036,-913.8194665141054,-1130.4500750544612
-2416.460643876373,-1481.423199791927,-1742.1926666682994,-2941.603251651468,2792.5853256120754,-2381.924072244903,-2635.6680320433516,-2914.7413174366084
-3044.3053180196002,-2168.9554351455954,-2246.661516842898,-3305.9761722365947,785.3445391083951,-2979.082217328163,-3245.192893138592,-3467.690446520457
-2746.1136925886967,-2030.7611782872118,-1882.6883508613173,-2687.147610414657,-1980.8992425334,-2657.374215928896,-2849.0468136435084,-2993.3918752737372
-3091.7735686777014,-2562.3317393449906,-2250.7030932876805,-2994.2990723671246,-4230.386063378886,-3098.292460042343,-3124.2811501772667,-3222.863039443342
-2225.069766574714,-2098.688268937578,-1832.8737524319877,-2043.4718994637224,-6024.169910821336,-2149.804569703847,-2042.0502369289316,-2074.2213389415265
-940.1262070800731,-977.0258500802302,-931.1903941572091,-824.4623291924217,-5732.236098716297,-805.5204040252283,-684.4847421496379,-658.6359928426828
-1281.1474721070554,-1340.7439440737217,-1323.1079203982663,-1551.995950670098,-3579.980412242876,-1279.9681884009333,-1081.9350228698895,-1142.9757005517167
-1225.273564737683,-1237.6439657803421,-1270.9586573159904,-1598.099977703314,-589.8806171127653,-1100.490074469024,-978.4623148858809,-1153.7605187918234
-921.5287874571513,-872.0158582898584,-913.0968569934776,-1307.9697555624589,2218.0047029070556,-678.8994983364391,-711.1538773811772,-983.0471632322588
-592.7717408818135,-389.0543876817683,-385.0189750293939,-729.5690121964144,4023.3962907485547,-223.0662411632511,-488.3856530855119,-759.5728012248728
-6.88750153008732,214.49437332972593,215.51387690783304,120.3453947857488,3772.9035676060594,495.0796046475589,107.81027016966254,-149.71584807995532
1091.704104750359,1129.2724348217598,1186.1101993975317,1590.9686646318441,1742.5757193359605,1734.076066460184,1241.5707541179436,1051.450954114407
1166.6097058649611,1122.1995469506946,1198.6186422936153,1751.4684893450612,-1166.234658279427,1695.302701316963,1298.5908599356335,1211.3424597247213
1677.67371345,1527.8736691913073,1664.623095446077,2295.753199012499,-4184.425247824518,2128.2900202001183,1875.6184022125963,1909.5375278530119
1640.2504377706937,1405.6580241489573,1513.6385771416535,2134.8344859907957,-7069.070785299526,1973.404511345434,1940.6295467910677,1989.2892577492894
2206.1661054057477,1910.2403579942475,1901.90787985707,2637.8400759530923,-8105.3987319135485,2528.2615601547004,2567.466506602941,2594.887186379754
1299.1541354792716,1156.605919189402,1193.1846730890684,1343.3332905404968,-6075.846413768071,1382.9744376587332,1507.6643751766678,1485.0699092774157
654.0176285417692,545.2589086177904,485.90923014136206,274.25093938781356,-3162.822348026646,675.5070068658097,781.4724265260447,680.2668775660713
276.09597661277803,305.58629714795825,225.6740940627933,-215.931738309926,-296.9527887349104,317.38820066995686,241.259771186742,95.82907483635063
-1007.6062628724758,-642.3560825083478,-679.899255268625,-1529.4489118267666,1475.3448567671294,-1015.4192962005327,-1254.5571685355098,-1412.0362531920982
-1449.8853773423325,-1088.9166821497056,-1103.296762876169,-1893.6941891557653,1037.4508910398145,-1375.9062011153292,-1656.4116662733722,-1864.7415019484906
-1100.8722334144986,-800.9797329559078,-794.3354806570278,-1233.8690720015147,-997.6743770503963,-893.776165824107,-1261.2458266085887,-1430.3898008248507
-1007.2489195041708,-757.084471759983,-748.4881303814182,-892.1892733839777,-3773.684317175139,-801.449929608294,-1039.0189078330295,-1174.2067690452677
-14.040799550159136,206.64439713083266,96.55960821805638,319.60904126105015,-6465.5169638943335,237.32188220621902,112.89028909470653,76.24225226040289
1592.0022512831492,1856.1642584740912,1405.8400321756562,2373.1499513595772,-8240.316578892656,1849.7655357708572,1876.6403097933508,2016.667513064458
3019.5142516736814,3222.209552982298,2683.9909758049325,3717.0164779105835,-7519.804620656345,3313.543931321008,3407.040663101565,3542.203310280718
1056.7087674713257,1333.896470918924,1088.1408112013087,895.5262139076076,-5562.704080902709,1026.9084280168026,1192.5907970481203,1127.5332190819609
-2622.3729104086233,-2192.4068320332517,-2129.587744591976,-3304.9049709082174,-2792.4556821631995,-3009.862371004172,-2905.029735706572,-3046.4386939970427
-2691.6778166555014,-2568.449643566215,-2265.778815861806,-3162.5860808948346,-119.30773440642224,-2765.717251752634,-2815.0590688629163,-3014.3975085842976
-1139.6416356604313,-1151.7625467628823,-943.6962262950401,-1275.6433468180912,1738.6047320714279,-849.3604965624108,-1136.6446418536361,-1325.7627194250526
-931.1356232843391,-812.590858822281,-759.345514200686,-1068.2790827345016,1441.614013531973,-663.606826024421,-956.0697532610939,-1138.0220477999246
164.27316525536298,140.5201114717347,245.26912797820114,399.82042018321226,-522.2745281992102,595.6063183151273,243.16954633446585,101.23476084919821
437.38343599351356,315.08922077213356,464.0411747320031,863.8510349204153,-3429.8581264774402,822.1527965842106,511.79813400529383,439.53629409779387
575.2018661947805,408.8145594356756,572.7834655288098,1074.7601050889352,-5942.414363550648,894.7584136682126,686.034624710388,672.0437379189971
1271.400978478152,1029.2970108462905,1164.3265471761842,1765.8366089231567,-8056.43500225131,1544.0969840682665,1504.1542816195142,1563.022428516022
943.4423969465424,784.5980343191477,759.2829213917939,1064.942855789399,-8343.911727053302,1021.0378334752459,1058.1042965032393,1141.5254056570266
307.5127954076888,142.68530567956623,-36.985851212790294,56.42051809177792,-6143.397817698256,273.96992182690883,401.51909462251933,404.6682548084209
180.97774354045396,84.96967526055232,-132.45393119489745,-188.16612709178298,-3130.2638432073436,244.34109656927467,297.32324101975246,180.8284697970812
326.384232368684,303.74891679961,84.69652033106831,-41.44421392926597,-296.4979448383456,468.10338417939784,377.2045163721923,211.59602625624393
754.9865761421825,772.3677431992837,548.7062159172856,488.15186115319375,1363.1507165473668,1032.388917759803,733.7140744246717,538.2399491040414
1298.5356208428275,1209.1430425709914,1119.4658725365298,1322.4641611631378,1132.3112549090001,1745.6618597728811,1339.202145946896,1163.892900427265
3566.251883555553,3128.515321982217,3074.2902724486485,4129.336113718891,-913.3768767064539,4244.84146141581,3718.312975386085,3706.5912891036714
4169.948172385717,3530.5954312831454,3601.318514593877,5137.224734437012,-3997.947050088791,4747.591242053968,4047.9148907583076,4439.998270981494
3913.5524499410385,3341.0070072985036,3333.531430307572,4628.543835378536,-6391.308316410941,4362.968794226719,4021.5632507047776,4247.704397233501
4083.42943915425,3476.589199460861,3379.4422668406987,4635.440515708404,-7266.400690251692,4491.153070376087,4346.275121899751,4547.074988876309
4306.072381848673,3653.189686570244,3525.748362868566,4695.126858617994,-7086.310278471821,4629.498923743689,4588.205977262289,4740.895310667205
4649.936470738241,3967.249648341247,3870.512568105012,4909.951946497058,-4890.682834524239,4969.343566327283,4947.249634702159,5056.117261754123
4481.249333287531,3894.5504106640656,3780.4756608663665,4559.202910067244,-1940.223047234569,4808.624392696838,4717.885064229282,4735.355779993355
3884.966324645393,3470.4129784681427,3351.0714929613096,3789.973560588558,802.3520199028899,4173.406819104719,3952.6459825628044,3901.2233671173453
2985.3818743166485,2787.7517493489213,2667.1640700297503,2832.1687479932225,2408.2651811791075,3277.996819326494,2864.229552564684,2787.2104474251464
3377.392886699148,3175.0194481717335,2987.3999988327632,3457.409840552842,2189.820068896137,3831.661499016329,3311.827127795521,3286.1307199937946
4405.940194670497,4122.094243943418,3897.769006567127,4789.500637795398,-137.6274369262792,4958.047067349336,4445.4563065850125,4393.005405732041
4233.7978836489165,3949.73610784232,3823.5121215617946,4724.611506355061,-3562.0042989294307,4635.9070666871885,4271.072715956889,4265.803152697001
4895.117848730701,4383.555597395616,4368.774635625012,5590.205688681279,-6827.365174215851,5353.5235231462375,5049.789686761724,5231.964351825554
5222.333143483851,4503.635920187042,4390.257548828789,5669.831551141093,-9515.023313989914,5502.418859955256,5383.0142346907905,5641.803564713195
4735.050384098167,3943.0990185357696,3729.7471465019335,4774.020356491953,-9762.461143983786,4817.995493685993,4836.906710979414,5093.078226334412
4498.04397141005,3720.0248774741067,3420.2849070300545,4262.631225902116,-7443.406559535547,4498.726453485686,4603.2497578676475,4795.01403508174
4263.518029958083,3662.8302820962767,3490.5731808738565,4004.657962623589,-4456.023393117526,4345.939328485622,4326.196418242779,4411.091532812403
4002.5496455159455,3559.1420730951627,3547.4627953413615,3761.2609921720405,-1675.7593497238813,4183.14474755883,3977.111010530458,4001.6622902403437
3269.702553862691,3036.4208546938535,3071.6675736061056,3031.9188257230917,58.321727446036675,3484.0567736871544,3112.836680149655,3077.4220847862234
3368.847188342831,3148.9891115423434,3203.9523890245828,3362.8295246595635,-380.66525587783326,3692.511258132945,3197.01392942678,3203.689623125859
4049.5409956438943,3774.238496107995,3846.801171782896,4411.405261181901,-2464.7264227963988,4502.764280142532,3901.7120249479194,4002.0515150252886
3511.7866410849747,3349.857781972303,3336.2352557958,3843.4721791953634,-5270.425200224108,3757.813252888158,3338.965001278584,3475.5601371146167
3144.8734839451317,3069.6895175729514,3019.268226374432,3425.63480478746,-7811.327633057477,3229.8600709540806,2993.071717016377,3170.679742464832
2912.8429025134355,2852.0860372676107,2741.1715684277515,3033.3437536783094,-9273.652819653445,2837.798360243254,2759.9981887596077,3019.2338212662544
2498.8409904632354,2290.928159130257,2179.7115738300963,2327.5014153644042,-8350.285453663811,2279.7204950853084,2321.0350849014576,2552.728404225363
1369.688009708163,951.7414156224659,914.9896571515928,800.674484970863,-6046.0572965474785,1064.2156893887986,1252.8078637232684,1376.385061311008
1114.8819483876468,622.794308253051,607.2070136068614,533.4824333135803,-3033.533004341509,968.8280409210201,1061.5366172817921,1089.637297797104
1189.6424825556714,842.192374388087,771.874926762277,591.9473830832358,-198.37922005214932,1121.2623547589174,1075.8222921906272,1038.9505306942337
1318.761547608483,1159.9020473298115,1143.855952544538,871.349623863036,1390.874110498211,1371.4306652393425,1118.926771411192,1080.2922185192256
3324.175649213161,2948.9939345439925,2981.89485720206,3425.850046872096,1157.8672919275996,3724.4219855805204,3332.941105241167,3340.4044831691535
4065.9582279971874,3602.411446285907,3664.0155020087077,4344.438185452062,-979.6927680185108,4483.634858242476,3998.906835364156,4080.091711076384
6047.461081894117,5107.588817918458,5391.481929255389,6541.254762162481,-3084.8634834972154,5859.870423357393,5982.61978959673,6206.466544695219
5979.676591161479,4998.838438293443,5318.834368781811,6625.888820408701,-5837.831827283381,5770.332943372262,5992.000285814059,6270.2695897883195
6474.549945975898,5462.971238091299,5769.000428146403,7142.633147867371,-7452.079946816495,6257.5457263917,6612.401848655369,6990.608747195585
6184.779369151853,5183.524189138427,5451.749298874398,6575.536115068688,-7383.472352131666,5807.64171418771,6278.902494796908,6604.897069876366
4941.823611909498,4094.376379546884,4259.240879316854,4860.607884337558,-5252.774042850546,4379.636959841577,4959.595207278886,5190.839142064913
4793.2399290909925,3993.96604211054,4097.985816054737,4600.883667359845,-2242.227641291818,4331.27077679379,4786.975372489094,4930.043370216121
5361.337908619746,4592.988923335939,4650.501218085432,5276.851370335637,655.7564997391164,5089.67356036626,5394.987319357555,5449.434789632003
5361.650560611946,4752.628722607798,4833.705628088865,5308.596135312968,2096.1111623792567,5168.446647082972,5206.681116199274,5296.674813746526
6158.458536681159,5439.608401081503,5614.879950340357,6429.718575274266,1732.0844878039352,6145.901050716588,6073.243652225799,6194.573444809146
6929.3418610729495,6078.423309873651,6332.346499270301,7506.935142419206,-363.21599445790343,7004.587431898079,6890.51667138208,7038.0019557548
6647.687790159434,5822.0364149373345,6107.265785746655,7356.2404759043275,-3127.2502377955825,6602.837874897334,6594.152754034469,6842.394805434284
6759.5674828999545,5906.190946686103,6131.815416442369,7455.70717600816,-5706.497996818132,6626.277211277709,6747.239369921939,7096.603976291386
6510.876596567745,5736.613513689459,5811.294531322768,7041.163310098156,-7297.643905619989,6215.931684033436,6540.494160530085,6949.476322326387
6125.179098421155,5291.966070339651,5316.335911892165,6368.03690144846,-6985.770900129399,5714.451134500196,6116.730166130699,6470.316636247633
5043.092444194801,4074.5399062122888,4179.503424421782,4856.7726117767015,-4711.023993811403,4526.278471748548,5050.646315484264,5266.443988969433
4722.413095577009,3825.720420508849,3965.913756061622,4449.535892629865,-1716.8301460703296,4306.529294486856,4697.023010650562,4824.741493496607
4630.031085936353,3878.5164818268386,3992.9099954867706,4393.7534425383055,1028.332898269473,4343.354473115163,4565.922163756171,4620.069286132042
4190.321056772998,3620.9561268370744,3734.633135146956,3996.394958947596,2315.8268198202204,3943.321044873228,3984.0615400663373,4033.882041134624
4416.282177134519,3792.6651781820256,3935.5362031754485,4373.100967510298,1977.339377143806,4225.657026236935,4198.355279814423,4297.707130380324
4510.238617601441,3792.8345668796246,3981.663522384755,4675.673344085706,-61.67890003504726,4395.572567638112,4312.617227214039,4440.25596634431
3753.2775966370973,3085.2261528486706,3330.6907164414442,3963.532041730301,-2956.1978438628357,3517.711854569512,3582.8125812626095,3734.5735448283813
3739.737538498055,3083.845395244949,3339.7349016443186,4093.220939754465,-5858.505417640605,3438.8570942982333,3642.114764768019,3858.718472586246
3173.0201059856336,2600.9856723032135,2753.5918348173145,3296.0066186918702,-6933.31837016299,2692.5942445014953,3080.9931291367975,3333.124243606013
2135.343388687441,1673.5568018953636,1706.5797930208646,1889.715196774603,-6098.3777574254345,1492.4465655713575,1997.0400337324245,2198.745373496684
1522.850540357278,1136.7277948728151,1050.9166199940519,1030.54066311114,-3830.1859726124676,895.9429725018417,1362.4854762406758,1491.152902437403
1631.9395249705412,1247.2383903444716,1101.1557413362461,1132.7445784231386,-863.4403860072052,1188.394896946309,1542.3597031459794,1556.5782428958191
2449.118199067423,2107.6982916038105,2102.092182252469,2231.1762172893796,1974.0704701945506,2216.6972134738608,2396.98358053877,2356.2852997345326
2991.0274817084573,2855.1071693882404,2944.2386628808017,3021.673916659027,3652.394277321495,2887.66139981398,2861.4637023589457,2845.9420496766397
4188.472015529202,3886.926095636183,3970.5149597686104,4496.055852473946,3154.011192046906,4270.174007693524,4156.415969955648,4181.863126347598
4592.884508128656,4144.693942522717,4259.659031295174,5028.13465186549,902.2679166420567,4639.184360352956,4512.1827219570405,4625.194897850917
3814.4715888419596,3331.2073383089155,3418.536888105198,4167.246052935341,-1866.7021701903577,3694.00445871352,3736.269002369023,3912.372878077673
3640.0524532380223,3189.7211729685805,3222.672849946859,4041.457574879809,-4169.737981004728,3476.4776636465685,3628.133012905222,3854.9710044607928
2960.316416087793,2660.342347622398,2617.325638734299,3228.6175741284096,-4932.143324554723,2668.173334240302,2959.437168974575,3218.7478588763624
1944.9062106776983,1665.7515170319239,1702.7537055778666,1954.334849046456,-3168.693601391322,1479.1441665521997,1897.1796815110429,2140.9100142269162
2126.1163903720153,1580.5526886949665,1767.8502079820028,2031.8116709440656,-559.9794903702714,1734.0493297519279,2207.2847804507473,2362.760951034521
2074.9184968591144,1438.0694512329064,1684.0059190017055,1884.5082474030205,2391.267288139992,1830.8499235300696,2199.440706727328,2216.3752342584194
2097.8091522278555,1468.9365642367047,1710.3419838595728,1881.676099915785,5087.77104737956,2017.758849183505,2208.5921032404003,2139.6898844342504
2435.5671637279156,1996.0510106816364,2069.4673863450007,2313.496621546161,6540.240266134613,2443.742656912538,2444.9725505363895,2389.461196739343
2620.682137163938,2218.8093556177046,2275.815981189313,2622.987844894582,6002.834760661877,2630.8001714626735,2481.495227776788,2501.096680796909
2170.629819969443,1823.1113023497455,1991.4101106091985,2325.441926650092,3800.037862682584,2138.8160064146214,1948.577805685578,2028.8654513789807
1478.1664675319334,1140.7996478503337,1377.825073735963,1699.7959343829134,1578.1417016823034,1373.780553860648,1335.2609888835577,1457.9110731440014
974.4613973984669,640.2045249823132,931.5699540564383,1216.6337780588656,-895.0044581174006,789.982977384585,947.0908831384731,1102.8662666082964
596.5257305387349,273.33435905585065,538.9499588266481,785.3440989941882,-1040.9225238564177,347.40951164701255,663.0322450166568,828.797462169663
-631.3646507188678,-769.1079820798768,-549.0182784568169,-744.7831545575755,1858.5089165479149,-1055.3661958789744,-672.9364466322877,-537.1186821460142
-980.3016604975855,-1088.2729955948598,-896.4772867978609,-1265.4679721859575,4615.171119319093,-1428.562880426005,-994.6976532350527,-942.4706617908669
-857.5277255608526,-926.9418269462767,-844.0092034929839,-1243.585301034589,7545.965438628424,-1225.225518065563,-895.7583574761811,-923.6079453005805
-453.4095081972191,-479.5234424150549,-466.89105752200703,-814.1210298819642,10176.288909930146,-671.2676982716075,-515.325544535066,-616.7689510912169
-388.7635359953856,-220.3246471598104,-231.69621697443654,-627.591525861877,11566.97983083838,-502.57973452223814,-587.859542016231,-686.6738110797305
-551.8088654656895,-346.543952228385,-302.019685445528,-592.7579123215401,11060.891727606586,-611.0812768349133,-791.5263171759434,-872.774904381833
464.4656960584398,465.0837585737754,597.0535552819783,779.6550961529429,8901.178487773443,593.9726285583165,366.80817657805164,348.8711963239184
444.6095140441321,326.5964410782908,608.2667273724219,842.5585019602149,6046.219488250757,483.58714756034897,434.29118698765524,462.3224882015784
421.8874563043646,207.91730441598338,568.5696666981967,884.1340387865494,2727.65529100014,364.9215915396926,439.5460974384914,543.1638104902813
-286.5379632236145,-432.3776776702143,-226.5051291685959,-64.44132498561521,-198.2909915080245,-549.4987233038701,-305.87407856967184,-168.0149985345779
-778.1928533081082,-803.4949472968874,-708.5673936200037,-811.6887301620154,469.855778576396,-1121.2497509048262,-754.5424960459932,-662.4059711194714
-1199.9783930061967,-1181.25975030454,-1124.8077822341293,-1526.3437211409619,3507.3609143897393,-1618.6422349811182,-1170.4949863627262,-1132.7664540794503
-1462.613413439627,-1373.2344159460044,-1326.1078469913919,-1930.4835624895059,6473.006362917249,-1873.6706032518996,-1586.8323555187671,-1598.1866777173418
-1941.9178664814099,-1689.612259000889,-1628.8247237874893,-2407.8543486009585,9173.849936369239,-2266.663424908358,-2168.036210192193,-2224.178489848884
-2567.7500775202934,-2169.488346757891,-2021.3571502896957,-2987.902809313702,10569.822811081274,-2803.7340512598166,-2888.1514353773673,-2962.8825577494863
-3544.5477549819625,-3035.137530776992,-2889.9279055670195,-3990.978008876962,10195.585846153626,-3826.903281686711,-3909.7950942799216,-4005.9892401379475
-4147.3825201689615,-3663.0941589133145,-3584.5873616258905,-4522.232631035178,8331.381138588324,-4420.991435253149,-4445.545648230298,-4556.090296754002
-4187.1986313464295,-3783.699309323245,-3713.659197986417,-4364.314670911786,6177.798838598064,-4443.1438663835,-4381.813665276946,-4423.8788785176
-3784.1555494976055,-3442.9957047886855,-3387.350444142765,-3728.8887905564043,3766.557421999976,-3987.6573940228263,-3853.939912681235,-3820.9765274070087
-3095.5423457009892,-2749.5412483644322,-2759.0409668657667,-2936.9474520895747,1362.4440642876434,-3303.7507293305534,-3062.212210035679,-2975.6244153641164
-1553.935342621553,-1243.9950036672235,-1217.5479617917736,-1267.7378254178038,940.2099328098557,-1614.2999926165212,-1373.2774483771354,-1300.1912837199343
-1424.5781369211618,-1117.5759471513738,-1233.846716228698,-1564.839080983278,3291.914208390648,-1615.1543949557963,-1312.8388654689188,-1295.0382392556348
-1866.2395389884186,-1505.3356963194965,-1671.7184775347123,-2285.7419391763688,6469.2483138524985,-2121.415439538556,-1906.724097408296,-1962.8032104047888
-2094.795636270108,-1766.0583319841971,-1781.8687362171186,-2484.755002539867,9155.162382898532,-2232.7364843352843,-2178.8888441700547,-2324.3348487842304
-2112.577569108864,-1808.8273421308986,-1696.939583141735,-2310.68945635244,10470.505978955174,-2050.2807966897526,-2208.106446286358,-2353.6383065571135
-701.7362472150708,-589.2934859434608,-462.156654358012,-601.5405049063556,9879.573800433762,-407.5593491028558,-690.9987688489491,-800.728699665633
39.34487151936628,-42.30913880436856,74.0626815828,224.64368696074234,7671.435177724765,359.5914644088625,95.87106249210774,32.684372993709985
-42.644938503566664,-223.4742735474283,-145.71235063766653,203.29908739609527,4508.171500101613,151.98414035292808,63.37058052705834,73.35103865506244
349.3914969712787,193.61958933470305,197.1261978159455,695.4755831850343,1339.7993485689221,494.9518059321417,518.5425765849795,606.2162461449043
-340.63616135780467,-382.78622035635635,-371.32663508030237,-149.2406155632052,-109.06716432912799,-376.4206935181428,-165.56651885193423,-37.57040705537656
-260.7467588400177,-355.4668652450637,-312.1792734725168,-145.31516537096468,414.9717410503072,-311.26020487920323,-84.77991096836922,41.417624749126844
-118.55527720294776,-309.378264691215,-231.471424458432,-179.29548451767187,2105.054769057402,-114.92141131394601,79.23733360337792,129.87930197676178
-1006.0221788547788,-1121.881731367539,-1027.5161040340317,-1339.5238466938026,4706.654915791587,-1054.2482476684236,-895.1990906847059,-970.4797138817958
-1291.8034528357966,-1201.582406992282,-1208.4915378589067,-1692.0001060651557,7379.684244702701,-1301.8464315090532,-1267.4052076039661,-1370.1266235613148
-732.4439378000534,-572.0103936619853,-588.8449327650887,-904.8417370084353,8682.22381191724,-538.0660542124824,-689.25798774125,-831.210725712066
-1251.21218119291,-990.1029148243833,-919.1076097467449,-1382.6554058230104,8060.624169481773,-1082.9734635055938,-1380.7549550849071,-1504.8718121658167
-1611.219430055091,-1313.864683922351,-1135.6522950751387,-1462.7162770034192,5724.3170928020845,-1418.1159442311036,-1729.9821002237004,-1816.4374141136504
-1719.7549136464659,-1489.0590516947123,-1256.1382888390654,-1363.836434445955,2705.8327628818806,-1561.7544237139518,-1744.0681164804264,-1787.1165869813558
-1350.1104876068566,-1180.6717370575498,-1046.9029720401595,-928.6343118348013,-489.1313196349074,-1261.883583125731,-1294.5219215219258,-1240.6045331553178
-1187.1395390404796,-1009.7902159529331,-999.4741150629416,-870.9807044078916,-1609.5381460106873,-1191.177086607131,-1078.0682937655074,-973.6483475669811
-647.3761203738541,-520.9810852197406,-623.3757082636585,-487.7121672759531,-1140.8973679357732,-667.3383042908099,-548.9567069438781,-431.2346416598157
-822.7576267006662,-703.1354370914341,-828.8135480777419,-972.1259897032869,1280.663487855316,-933.3097430912021,-765.8262891182676,-700.6787366622011
-1107.6928268561169,-898.1049297229765,-1011.0334282962867,-1486.402202009136,4169.5410018561815,-1201.6026390251354,-1097.9708642169135,-1137.9025260355993
-1826.4748902981082,-1492.5943163266056,-1585.8749893140193,-2370.286028263683,6749.238314601564,-1908.830899240682,-1908.5257202320645,-2064.840856154624
-2730.1596236392943,-2142.1752397128585,-2210.9468048894196,-3250.627236217304,7946.071244617517,-2836.9215328509017,-2992.129645992245,-3154.4437676113303
-3041.0288599598134,-2410.871360762714,-2441.3311839283706,-3342.9129276088497,7436.744258263934,-3071.36003394828,-3265.4707884172676,-3442.718142027079
-2421.8664713823528,-2048.860569759432,-2043.2423483979946,-2497.5643503064493,5047.523439822951,-2334.3772499605693,-2527.272117029541,-2670.5126182047097
-2049.8182335938473,-1947.3061799346178,-1858.983092400682,-1939.6244555128942,1698.3304804083018,-1901.0711341909337,-1964.1618615562475,-2042.7056055646535
-1877.480105777635,-1772.6195827354532,-1690.8309176886105,-1617.4494618611207,-1413.5641712822835,-1774.523797613103,-1764.4479063955368,-1753.778413567139
-1771.0180080995779,-1650.8643414645921,-1632.3906690504664,-1554.4845147406159,-3061.505282804341,-1725.5280207059259,-1617.8222255471337,-1551.3949449300126
-567.6707049160032,-605.7748485983611,-632.275954424782,-266.7628505264729,-3586.619425010431,-435.7381491326523,-266.9010792085028,-227.80530925447238
-657.820732293214,-685.7174793703161,-794.7926617735211,-664.8361352445354,-1191.6081572860712,-638.3637383499299,-426.7220589527569,-454.6613426533004
-1156.1219950555824,-1095.122778017132,-1259.3393801151688,-1481.0944600777875,1711.7577521932835,-1174.6679053809348,-1066.032345971893,-1181.5210313373973
-1236.6050257479073,-1046.394965040905,-1242.4796432571457,-1615.3665900323685,4359.683504538669,-1180.2696104705828,-1230.8166158647073,-1392.4347423607105
-610.8011633452697,-350.008021932299,-421.25285313636414,-618.3491342420893,5668.179814791569,-340.4919834432949,-607.0427193596988,-785.592166356786
-801.3647186874005,-467.4399081162701,-504.34497500750876,-624.4447455312184,5079.414881168603,-482.9051751829975,-797.6298414286139,-968.0828606559371
-1212.0393633779458,-880.2061488231557,-900.9301687150582,-918.5971351155604,2635.178601804335,-923.4868645155075,-1249.1994494620158,-1371.7320172134932
-757.8507787061972,-574.635602526323,-455.6682692663453,-226.99812781486253,-132.68339534130064,-464.12751976496656,-673.1602163118805,-712.1852365929371
-163.95479816080478,-110.48324215922912,75.5259724372736,448.3065821060736,-2428.636681082833,80.0789903068362,-1.042080274070031,68.83597350482887
-678.3087662721373,-617.1971414589643,-585.8707140721235,-411.8080743423343,-3775.1468733292713,-630.1927510852984,-447.6325842744118,-382.1796914961451
6.800837205460994,-135.8314660298638,-197.41000114825147,64.28364542212512,-3120.4834230514825,68.5715815899166,330.73467577513657,376.8371051426511
-326.1957490916393,-398.15385331025755,-444.3936663952045,-496.3588923048228,-695.4951843391173,-331.6020255921321,-93.01218738261377,-102.02627782381023
-804.6431166703696,-717.648491870641,-762.6018119792134,-1034.549447898884,2302.456381424243,-780.1095352174161,-641.703994952346,-772.2795464615629
-831.5029816628812,-645.3663910543692,-720.9410599587864,-1090.8721434705512,4973.597691847041,-742.3265778813657,-776.2493637388397,-958.8410675414634
209.45122562596225,388.4406979524647,317.32686627491785,236.81089078581135,6195.508655965532,530.3393094269268,235.44960543683555,79.92015085608
1168.1234164126654,1263.2517545165465,1166.664774164994,1394.6854151278385,5590.481469009479,1619.5851313392486,1233.83365748309,1137.096724101968
1220.6188685827074,1415.835019346734,1229.1380078384245,1542.4579417080386,2987.5326588764146,1608.4438122985885,1233.0835411565786,1178.8209927990974
1438.265653958777,1591.38750411621,1331.094762183755,1904.6285527697473,-300.90781040716683,1802.72725593434,1550.339046180321,1553.2378589114815
2107.1273448238353,2102.7817606237513,1785.304151614706,2654.306025395781,-2874.9305155566253,2427.437603095779,2285.288959495927,2384.865834391545
1308.3970861911657,1330.9942024784104,1064.351673103767,1571.031702610664,-5404.918488946569,1401.4089025100548,1462.5147775111836,1579.4115722846473
-314.7246994126763,-224.48211619217182,-387.7739559941692,-461.4542731075635,-5284.336939664965,-442.6033990702708,-254.28104820752924,-194.93793047079816
-1030.4985301799315,-874.0309757368814,-1074.1810197136365,-1408.5792937357328,-2866.729491464066,-1176.5166947820835,-973.4241069487325,-980.2459943134454
-1253.3236691103375,-904.4437597933866,-1063.465426980285,-1683.8641133474885,134.85303258977365,-1336.6214627606532,-1281.3405011127325,-1360.8910376036365
-1685.0922832973447,-1161.9518869342428,-1331.9399289073626,-2125.8952401182614,2854.4616604324256,-1718.0248683852988,-1786.7019107597152,-1967.4347390570474
-1299.715209466347,-722.03321219809,-930.8312567907269,-1456.6403965935606,4078.680396252923,-1111.13682978008,-1423.6163359887578,-1598.2327926962316
-710.4001800600381,-364.6193061932281,-459.4634236032871,-626.0971522034088,3335.388139184797,-388.4257018891367,-837.5127490232844,-948.2327892919566
-743.8315784705192,-661.3960361495847,-626.0532251074765,-583.2977971108776,988.8031975636259,-470.72666709384066,-916.0038753015542,-953.2590335369314
-786.0253478399827,-876.5643044739845,-899.2612195408292,-611.5439943042002,-1886.3770624618628,-563.4775304704963,-795.6266172071482,-778.817543301644
-642.5373913852818,-919.9205139295809,-928.5191165998403,-463.1677662744187,-4495.3281668595155,-527.0516000495554,-596.2538642529107,-498.80374965832743
-105.1883222930337,-457.59285065512813,-480.09374643708,92.99523618740204,-6128.950833874085,5.586699179111747,26.535934097628342,194.1533065061085
223.44014176886412,-97.84793773779529,-193.97615171472717,205.05877082837105,-7585.864085335692,296.63714218346286,413.15459921643196,533.866153184339
-11.226547070822562,-226.82788265202544,-340.2976174542273,-196.96658921575,-6084.915849147772,29.612251076978282,145.3998023373424,171.6496572715405
-180.62387004874472,-232.38529006188037,-373.05661499912094,-448.93750840325083,-3160.8690637799446,-80.22882730397396,-166.5338072523009,-231.16337749166996
156.45206685108133,180.7768864503887,18.058697895117803,-88.2498153331544,-448.52982694259845,356.9020247603621,173.4444391853467,76.3230258099793
702.7527333920298,819.6338994932594,674.8816608526977,729.7347818437411,870.1456868633686,1105.3082242957462,731.6011330138863,603.1882637862436
1278.5283039138012,1340.846540626735,1297.684658006765,1591.4425881167408,439.03263324618456,1771.271167271465,1308.1928372237016,1222.452750747354
1865.6504523689073,1778.0480832829926,1740.1408867061546,2419.840563459613,-1967.1664781453146,2418.1096339182986,1947.9632360700052,1927.5566243056674
2108.16623983263,1878.560463174188,1833.9126231655973,2712.7160940408503,-4580.596043870901,2572.4313215791044,2213.88825015357,2314.230506238804
2045.118161278384,1753.1509283601335,1592.1491605809715,2517.2853190558526,-6313.37128957425,2271.214335701108,2176.096588903427,2350.575465490794
2198.78542926682,1825.906935373845,1694.8227862748026,2618.1517866031354,-8318.403945185419,2501.2212105353974,2513.364044092901,2666.8126932134473
2338.530871589872,1971.9753561371035,1810.8093486166472,2568.8560870970978,-8864.42201722649,2609.166233088632,2641.170467420423,2778.7049604898493
1475.5484987778764,1214.963267570245,1046.8317820482334,1286.7433338781557,-6092.433421714697,1550.0994700726587,1638.7246355161624,1691.6607395892206
921.0193355898373,787.6716513603315,614.6120615434338,585.860200510826,-2826.4137196855736,1003.0782438058814,1047.2861944393371,982.2602816358267
418.8101173698815,511.5899276248674,296.74896899795567,-10.945882232685108,-109.19129624901689,508.3300472370902,358.86856791713217,286.274997877088
-645.4778290254617,-328.98383976153855,-529.519840322755,-1109.4262162603118,997.0195842662943,-594.3996586109861,-867.5334119109757,-988.518826479165
-1600.422061977748,-1171.2705595245934,-1404.4440130019357,-2002.6491925852897,236.14532451244304,-1578.5729452230153,-1898.8425476656703,-2039.0075334544817
-1683.1065276154404,-1334.39880000813,-1487.359168740717,-1788.738227764712,-2078.06796211272,-1558.7168931153137,-1946.7611487318936,-2006.2987421624566
-1807.1414773201395,-1563.2952839836362,-1562.7767406901257,-1742.6438808162784,-4868.245432886557,-1713.4369512420235,-1978.4297130470513,-1989.7447187580983
-2173.6354502204485,-1892.4387818131654,-1778.2805081974075,-2095.585751083214,-7411.666542382503,-2215.095113882853,-2308.9603835764865,-2268.367367279585
-2055.349580497903,-1770.9298162899795,-1746.2078510225256,-2037.600776177831,-9680.968133714749,-2149.3835175247223,-2083.162039725459,-2027.870260450727
-3296.536021323569,-2814.5241375050246,-2915.562416936533,-3650.730297626127,-9543.571897883128,-3643.185550390015,-3534.5134231105476,-3502.495933944185
-4953.617186565083,-4291.2006106604385,-4400.577846669927,-5638.546869125261,-7010.565239811942,-5455.600581554187,-5271.847244938181,-5337.723387698556
-5422.020934534332,-4654.0979840217915,-4771.761942631332,-6232.253453509547,-3999.974231490676,-5800.239125814129,-5740.251428420554,-5921.351664015092
-5480.768512370138,-4607.003072606734,-4628.230690433673,-6279.944818349148,-1337.2069616479712,-5667.212693334208,-5781.055906074471,-6033.793193244841
-5032.739126272965,-4184.383975077704,-4194.513078489537,-5611.586274883841,-110.65821532062546,-5024.623121329685,-5269.339774720211,-5557.378149068478
-4971.310186757182,-4180.105860017044,-4282.88026694196,-5408.963808759916,-807.7729667046224,-4886.4861059960385,-5193.469631543849,-5461.760236151502
-4835.500977240568,-4124.0175651009995,-4143.408177020501,-4993.284034806944,-3230.0874443569046,-4679.433740386288,-5036.331501943816,-5252.1013707932725
-4546.027759623052,-3950.6499607484075,-3916.088234544295,-4525.379918249826,-6037.97086772426,-4366.016295250498,-4640.929253953676,-4753.667080985382
-4382.97627935293,-3847.152329351651,-3846.7006021008856,-4408.313773694856,-8457.431740983986,-4276.863761936191,-4390.555769056526,-4413.86618113119
-4524.990807336333,-4001.494790389952,-4112.6951333153265,-4656.834428773975,-9397.338998884661,-4513.248487416422,-4441.807861667236,-4456.99732490514
-3907.4992005398963,-3446.097399856546,-3644.32563766776,-4097.3323067391975,-8775.247558574265,-3869.9119121224066,-3775.9906845359146,-3801.0536876576443
-4604.756866512245,-4009.6740953320186,-4287.407044177482,-5133.332929580109,-6204.188027439326,-4653.135614191495,-4545.846619851851,-4691.373695511524
-5849.912353226551,-5028.280401168431,-5334.179801693033,-6676.231925761131,-3228.5538230032034,-5989.700012081874,-6002.707107775626,-6240.031410217256
-6579.862681590719,-5531.106732132772,-5901.880282234961,-7544.555501814695,-528.7499433956036,-6738.712076536409,-6857.305842188489,-7138.00272121809
-6779.891495522508,-5485.496874486504,-5944.663072285435,-7627.889607969169,778.4656856643851,-6842.046637417801,-7088.493476103693,-7396.3413709634515
-7081.344705165087,-5806.02310584806,-6096.833166534629,-7692.757827325353,-249.19719672426436,-7032.458100665277,-7338.170376848619,-7678.980436827369
-6361.113709309502,-5300.1319287547985,-5340.900295664365,-6453.316417677068,-2538.439380498341,-6119.1409343690575,-6490.725292717442,-6773.576048751201
-6124.887356980656,-5223.071894367071,-5209.754020388804,-6035.082446225026,-5405.482735167221,-5886.423863650978,-6145.028522160776,-6358.320586378297
-5154.4520744016445,-4492.54926056269,-4470.342991698843,-4889.76093970305,-8571.57203107714,-4825.770400141091,-4961.137237664808,-5111.2875049158465
-4406.415360229494,-3765.605136326242,-3904.0337372271847,-4212.16595198343,-10654.172216672247,-4112.688985430248,-4143.5337628517655,-4225.9533841814655
-4233.272848807642,-3590.4952077141443,-3910.4836410309617,-4290.454141960845,-9450.012436061585,-4071.976049007404,-4047.7997634515614,-4124.718802699823
-4059.2208892525214,-3501.215610962723,-3836.1465361027313,-4272.552249202799,-6808.933139699176,-3859.059588014694,-3857.9628138069584,-4008.1683140045843
-3759.6570514458945,-3361.6552224028037,-3543.961190265927,-3940.7493694686164,-3691.9432776719073,-3352.4040800681796,-3476.919458081258,-3746.8051913829986
-2810.017540521945,-2408.527375096157,-2577.7290338101775,-2864.3700933820546,-943.3809571486403,-2175.038796888126,-2529.0509366367332,-2820.1741953670244
-2507.3125909411683,-1981.734957974455,-2246.5730336147426,-2554.3467090380873,156.09253251073375,-1843.4144859051667,-2320.8145349590886,-2610.114323943075
-1282.406665316612,-913.6386835977864,-1180.8053999133263,-1124.7881156796975,-607.4894492538749,-524.97377810943,-1036.267839318938,-1268.92783189283
-262.55304804071056,-35.65646094547992,-297.1622924596377,145.28895875115631,-2856.606455578754,533.0008854987536,-48.85879051638403,-157.44671067136005
-906.8790426959094,-592.6823262355065,-794.7318411529595,-487.63533780635044,-5619.976374248309,-291.7568510976598,-723.432501603027,-773.5219181918837
-759.6435604996477,-490.2802052539955,-461.7844850555157,-176.5489086294183,-7799.816388528359,-175.28973252282958,-483.6403855501667,-472.60710227934396
-2013.9299179517075,-1562.829951528107,-1542.4876528901987,-1742.519698535336,-8152.699789314822,-1707.3749148213683,-1807.442591147079,-1792.4909418678544
-3964.149177864252,-3368.3382404201693,-3315.226715051198,-4174.929527084481,-7244.3280718193055,-3969.540387041223,-3912.472854362568,-3944.4676617051155
-4119.752545500385,-3646.3007881283593,-3625.421702501095,-4439.8649442868045,-4729.710337375727,-4046.357332915526,-3931.829006431559,-4100.194357037006
-4213.572490125654,-3772.992312602484,-3843.9558899693293,-4657.28532724706,-1731.4118121751599,-4053.909521813541,-4060.7194851835447,-4320.739015489817
-3249.1274517233032,-2778.410187390182,-2975.531533817375,-3574.424269791445,941.0710178502923,-2888.1002310542317,-3119.163007436953,-3371.5726797399548
-1885.994919118013,-1459.0976553272922,-1753.674284357985,-1901.2220260949543,2134.4091892790675,-1254.087185539509,-1724.944676889063,-1969.792156738593
-2109.4426653076443,-1579.5512346702453,-1853.342260143254,-2088.6870495663243,1287.6582456765827,-1539.311212117238,-2150.7686025899675,-2325.2985585522474
-2825.937662792625,-2228.587630345901,-2346.1491856229695,-2602.947894759287,-1201.6119268405891,-2326.1675020789844,-2909.8700372894236,-3052.403897916469
-2650.7319634612577,-2185.7194345840253,-2239.741925525639,-2204.8434627223905,-4070.0505023025107,-2149.107735109552,-2626.476905723197,-2674.4123861242406
-1951.2742884247418,-1688.5480746259564,-1799.05369099362,-1502.1975164930045,-6713.173575272798,-1517.5885148711677,-1827.4842804496511,-1776.4295577739395
-1618.060692850595,-1496.541598722979,-1714.0168126764183,-1429.9855156248595,-6955.232812240058,-1286.7780919035067,-1378.4125208470796,-1309.733955050775
-3197.930731905348,-2933.623797039618,-3136.777567710582,-3502.4896963360297,-5835.050450392424,-3119.9339959948556,-3054.486036703951,-3075.955780091266
-3775.024304428538,-3374.8050205156615,-3599.614280177615,-4179.356120012075,-3239.5417017407162,-3665.616263402626,-3564.6911024014407,-3745.5252849980243
-2669.7772521898587,-2281.036618556893,-2520.387676657534,-2831.331358202224,-208.70843177607458,-2259.0034893729535,-2380.015101885947,-2628.5005253891723
-2161.5988121748087,-1678.5968287723153,-1914.454946537233,-2297.219215921941,2433.3025906018593,-1664.6766170841074,-2013.2132093273249,-2261.1390981802833
-2015.47609618133,-1442.7907174880092,-1613.3719715491825,-2049.563435958131,3429.8828960091487,-1452.882564407133,-1926.8350881936349,-2208.098463774266
-1449.5900932600343,-929.3382719166402,-1111.8103504644096,-1256.177878798786,2598.9424747878074,-816.7520854684117,-1405.366548167076,-1626.0529911858466
-614.1068030711031,-221.7221762272966,-377.13277190909866,-110.88324539625319,287.87339353602147,91.52617002633633,-550.2228389558586,-666.8495693940349
-914.3050074403,-628.0523670730108,-750.5897390920363,-432.17695039063983,-2588.897827036126,-363.61884048335196,-801.9746939733741,-847.0932835466665
-730.1388763934083,-583.2470485755257,-682.0889467563102,-260.0025694611686,-5590.202021943514,-264.645233052157,-546.7375872983539,-495.87422259751474
-2100.246741458832,-1861.5662061872135,-1972.748271569828,-1957.0372295278212,-6731.492145007855,-1928.7541916907358,-2045.5933783847868,-1986.0767849772965
-3153.740828345224,-2849.765145761303,-2978.1944594274973,-3265.6298180622543,-5531.964850916091,-3093.9748848113086,-3113.385898554261,-3113.057314083024
-3632.421153758536,-3272.531056037202,-3459.9680200175935,-3987.841929216869,-3007.1384155141714,-3524.182940556493,-3500.6071620024304,-3633.8609764738358
-3281.6997368529555,-2871.2298505510116,-3094.376932778512,-3608.975847352005,26.22667124318832,-2966.7909704641643,-3062.986918530776,-3338.9551124710706
-2742.77298815253,-2247.1496738297137,-2553.63284015088,-3048.0617113064945,2660.7849442144216,-2291.271911280186,-2585.24223044877,-2906.3346882643527
-2670.765816848594,-2014.7605156305654,-2349.2300711085554,-2914.3303613136086,3759.6147089152655,-2161.2838628258614,-2615.9022746117407,-2916.0430527366116
-2164.5748815917177,-1422.9603396756138,-1775.272269058507,-2201.258883921939,2872.7781030156475,-1610.434347288945,-2130.989261563431,-2388.378492959906
-1220.9389914585336,-467.0228721922176,-862.9840302950906,-904.5019804433396,514.1379087660316,-583.541895796865,-1101.8330241566873,-1291.816778500899
-5506.1068195963835,-4277.177666989437,-4577.125340743902,-5008.041559075826,-31.286708547047432,-5203.771646494374,-5223.270388555056,-5516.195125815915
-4911.379232503365,-4024.0983607934504,-4143.727895328775,-4309.768720140481,-3572.9634704738355,-4661.778022741136,-4537.60561257036,-4752.933623936351
-4661.305307735525,-4027.8022072284803,-4090.857799960113,-4175.112270966443,-5996.898681448116,-4518.935531393652,-4240.029437637959,-4395.193492911205
-3543.5290473521436,-3337.6628764222223,-3358.4550656556858,-3110.2247115842147,-5230.626049932989,-3281.4299522406654,-2999.2864630135573,-3133.5412846440777
-3577.1583295091077,-3437.378103900477,-3525.827082703756,-3460.5815168948684,-2636.9092995994815,-3395.4535003447527,-3106.1054198630773,-3327.243719354745
-4197.732794530759,-3808.614118227564,-3997.192797148291,-4335.090691469373,366.2243765928979,-4066.0126252232003,-3854.2388777581873,-4176.6695023732245
-4406.700725918643,-3794.7271508037084,-4032.9649199942505,-4590.0510880119,2971.737734819124,-4192.06866817682,-4147.10150277225,-4516.359095136733
-4793.7964683141945,-3966.34496949031,-4137.297235944079,-4875.314708931815,4058.6509973743123,-4546.615247009671,-4693.328434509356,-5033.35772948914
-4936.228225870895,-4077.0754433881484,-4087.4580094163466,-4805.899817177611,3099.1638405236818,-4645.736175073405,-4839.380092790037,-5208.18249492193
-4219.464734184599,-3500.2704684331766,-3481.678837062311,-3789.895305737402,666.3341360927252,-3823.130426183452,-4047.461224545339,-4333.207299141948
-4056.4646806522287,-3463.393105727315,-3454.886592449089,-3530.8959357288113,-2257.6665484982623,-3719.434327422903,-3819.7452299898214,-4031.926989272404
-3627.325358950715,-3148.620847946964,-3136.1801565141213,-3022.308481152795,-4708.780583723701,-3364.1805260995243,-3328.2890430536936,-3463.3798188982328
-2529.981216581007,-2269.598685240002,-2341.969699930618,-1923.7695599164726,-5091.990363493533,-2218.641200980681,-2021.4818798037813,-2119.839234057341
-1923.9887395713158,-1776.8863259012796,-1874.7226301027476,-1550.853812259149,-3949.5851252932152,-1707.3075598166179,-1428.6430897996033,-1536.3530734205196
-2259.844490553536,-1984.0706450213765,-2146.090562691483,-2194.0883967932823,-1404.7638659808144,-2151.185412813291,-1882.2413252268598,-2055.0699467088343
-2711.2274883286445,-2217.869913610135,-2435.6965149670577,-2845.2569041774404,1586.6647384405842,-2607.236472499062,-2456.6105080572015,-2697.140529367258
-2912.5594580307006,-2254.8182471592663,-2490.2209577889807,-3127.492571806186,4123.724817570295,-2753.395182091139,-2731.3118111618096,-3033.137939378037
-3251.195492719271,-2426.1127040866704,-2702.9063046644806,-3359.114328085503,5217.378710387526,-3038.2003951708175,-3153.823152987192,-3480.674232477293
-2179.135252056076,-1533.6724022318303,-1714.0297941782192,-1844.7655175788168,4360.289280108702,-1751.1538674130134,-1964.7423761328027,-2261.6338775406475
-325.2675664933631,-89.57293397501053,-123.2579005519583,441.6423726898429,1892.6450174887932,310.3723323463346,58.24692525385035,-134.10756740487705
688.5912451289478,566.9275865794771,689.9619332747898,1673.9960740797687,-863.587955294196,1330.2184511951855,1162.4123008542738,1074.9369447388017
2311.1669295124884,2002.8541352021057,2001.506180110111,3458.87034786016,-3143.0007164976923,2973.6969736272877,2910.61618969508,2942.3160429536583
3664.394241807342,3236.3946132870915,3110.446584156227,4774.006032781457,-4059.373680129751,4286.887227951527,4292.985454189504,4392.27381118296
4116.948019085154,3579.9799944653278,3465.7863872183443,5037.182807074743,-3200.565658037949,4659.780000840277,4662.849433990064,4731.609830524554
3509.987343751469,3082.0506317357285,3120.0962628409543,4203.153435736611,-568.7240651402353,3972.6604057354343,3967.735659165235,3969.275217806571
2099.3646816867404,1913.3567943552189,2012.9699460556512,2540.9657687541403,2278.9032862947697,2410.606401972611,2336.9286037797065,2252.727836881677
1368.4702907371757,1393.9666217319027,1330.4663331525371,1517.2167258868722,4554.435470749819,1547.1727854229684,1429.0973929649408,1305.5493105907954
-357.70533560615877,-84.1484723490139,-742.3813546901656,-1239.6554411168327,5027.333304311116,-813.1334621820424,-481.87858189750114,-501.97540380066494
-1452.019669458561,-1112.3892514848994,-1504.3229186927128,-1945.6482701805362,4535.291097445035,-1604.5378908621424,-1615.2898975341232,-1751.8944008861436
-1283.4261382913246,-1009.7225396135254,-1107.1189091259512,-1189.7980572230517,1895.0894103140413,-1213.6842791971285,-1400.8146288432108,-1494.6950595189119
-629.4165028432981,-371.38346560611535,-387.4234654495958,-207.40838648495992,-1130.313337168733,-531.202326502018,-595.5426422384917,-607.0918285825828
335.50665528004174,427.4402763123653,437.41932423932303,792.7525234608765,-4540.497689087875,359.33744004776236,455.895897442133,545.1027175353811
1535.6284748541657,1189.3610702857914,1090.618975004123,1910.260863236239,-6580.559701658297,1625.103263848665,1889.5276599308127,1986.1506997988545
1423.3323768032278,946.650402203275,769.7741985742687,1473.629832309598,-5456.742988547372,1379.6632943931836,1736.1370564555546,1814.2112402092025
896.0459719430219,453.25259568081674,296.42475911046495,677.8707953119083,-2835.691428335027,792.8382831975105,1129.1356320796185,1131.9557037855848
-69.5507312744885,-331.1311963217304,-400.2491926645671,-455.82691775087005,98.90662016696297,-203.0148539025031,6.567540040297899,-83.3388209087716
-503.74945765753364,-505.5026703928597,-558.2378521105566,-870.659461280171,2750.9533449560004,-562.609409689343,-465.9889806313222,-624.1160886463185
706.6130341998432,741.7549686175189,571.7196524870087,599.1932276248554,3792.396764806381,839.5204863577019,756.0994405567399,630.8625285654998
1522.6098803343557,1474.7915955593999,1318.7805869154254,1650.1268990096942,2761.805862189236,1751.3810410557126,1530.9146996879354,1476.2430192834872
1869.9515570835065,1673.8994611106464,1636.4960927775028,2298.7209675942067,290.21768929555947,2144.1426344373976,1917.0822428390165,1900.633969599432
2015.7443908403875,1685.346156631269,1786.7417446085092,2601.3270597549563,-2440.0285373163806,2246.349556203364,2098.467099030553,2182.8055664346102
1684.1206404719996,1265.0769080362516,1565.2110478546165,2289.960345656451,-4943.831146795654,1785.6822964798266,1740.4066607532004,1907.9537762151958
1424.3551942347985,1014.9141999025014,1132.7352861529143,1847.9607416816107,-5758.2095465494895,1391.700335533169,1551.0662770535564,1736.5044736044802
1499.1704017940938,1124.1937907151441,1004.0222611896606,1607.1060794853365,-4556.803591630316,1381.986311399749,1671.9406548027691,1794.4114952465025
776.0228299341034,540.9626754980563,330.8288389171212,482.5413880987653,-1954.3481567341769,537.9547721251147,868.958308065281,907.922008144742
241.8249351268896,204.62017610720795,3.7774721638998017,-169.44242995836248,940.836043346244,40.1384469497134,198.60425363553077,195.45541285524087
530.3991095108213,551.2456983413795,388.5451094610762,240.33502789882186,3478.9506432424714,508.4152742207734,476.48356144342324,434.4766090555713
1102.2696896180496,1072.1454675129899,1018.1257316078554,1073.208205098861,4442.06597559162,1263.8473343467558,1048.6918719591558,993.9887213127804
1316.670518980034,1236.8915258579473,1284.8907060170823,1528.0362736729512,3373.5122976894236,1557.9824058664271,1217.5723205491668,1202.0896925704983
1949.409529941011,1748.5123579231986,1769.2954526144604,2384.743625983476,927.9987263632538,2225.097230607116,1910.7441569469484,1958.1611791532268
2257.1942126272697,1922.9781167544206,1902.759438169298,2735.657477717439,-1945.803840997938,2440.4400876416366,2308.4891329848397,2428.380561656075
3042.5442295416287,2583.819295656929,2538.8055542553448,3593.7726180152094,-5677.853068849949,3199.7206537149214,3242.051249997123,3427.981878344657
4043.2834900831767,3473.7887848506434,3374.22923832342,4588.06859546228,-6469.690297291832,4200.472267951915,4348.205757979806,4592.783917521625
4302.0653730192935,3689.2849685162982,3626.2362749818058,4700.886051575646,-5007.632760654054,4431.354174622429,4633.986944869788,4834.167818494123
3954.1277873095605,3486.740809737239,3354.3062540091123,4062.3554867911953,-2379.4256004572526,4007.841633991813,4178.302290036876,4292.495544658697
3784.814753627863,3618.4189235758495,3348.2491964598685,3691.9940694447373,539.3553734677989,3799.31432552386,3847.0893656978824,3904.7427200924167
3378.311174050108,3312.6443547335793,3130.8943863806107,3240.215912556874,3025.156881577328,3436.5820976903215,3374.4023933844005,3348.954595839739
2609.499530343861,2541.253456151754,2515.1564657008385,2481.2410717675602,3787.75350610189,2642.4837931803318,2498.9503585341627,2448.740224387934
1919.2720804654637,1830.5191941417079,1954.115897130565,1858.6071200521528,2679.435909372238,1883.2658058208644,1671.847496213085,1687.7451838357442
2031.8588961064816,1662.5451265591803,1946.8603273079234,2221.7878563838804,248.23845600396817,2059.8777402971364,1883.677177496586,1939.34999473785
1608.4227641188936,1123.7917141325715,1334.5515818708318,1805.137018279247,-2508.660326369325,1579.4445947658523,1551.8841731041111,1645.0892972773695
1311.2500171834772,998.1252560961588,972.3041171825198,1414.0234117985765,-4766.80341836052,1096.039022717825,1196.250357687114,1372.6085925225907
1297.0559566254806,1106.5134818978377,940.2956563653661,1322.4267486707122,-5286.220830533639,1020.3902200875154,1210.6888852571683,1431.798453655916
775.5444009339794,725.7569941385793,510.736873543181,664.1853531311262,-4204.40472379198,439.80264311625615,677.7559019921991,827.6997391660743
345.02423445642717,322.46407407119614,288.22702248788664,90.8136440651524,-1680.9154707121124,10.388515117567295,226.91397727104595,316.10656279883733
142.4924056799045,-41.41905527200515,271.4684809719961,-163.95678888420298,1340.155259944353,-37.526438814902576,89.91839771412015,79.86234440739827
484.52279084684494,276.84151781268883,457.1795355296026,141.1151770396009,3879.756120536382,459.14918153887265,475.14338876696456,371.44473263181953
1259.044929506376,1131.4171147582942,1177.0452267073658,1042.3968115331281,4811.451864150171,1335.5108347645837,1207.855835869832,1126.7377796957826
1780.4960880280069,1610.80230092591,1719.9441894945624,1787.5065510485401,3831.299468642821,1920.28258069213,1688.7559939560033,1687.8955073081052
2507.0260825930122,2189.8618625836334,2441.869153584023,2848.940370727112,1305.162862019788,2698.771056273643,2475.672724972197,2552.573326459815
2787.393281766019,2255.895191434831,2561.1517792323375,3224.85903954077,-1487.2652255142384,2909.153313929117,2854.926233149861,2974.210521112893
3053.0445985583956,2450.1105035412293,2728.5333880884946,3504.717033861987,-4144.5719424549025,3072.361446022802,3132.116997501631,3341.369124997742
3916.150279719568,3246.2150138388515,3463.081893410028,4452.718023026526,-5029.749926351717,4030.048583969401,4205.066565205612,4405.033110473829
4597.403694898407,3871.852557410426,3994.6523289591205,4955.161823251761,-3821.941092431458,4739.497797846412,4907.438336592044,5095.186803151155
3689.3700662063675,3141.8184876329688,3239.9242631985235,3595.299770128877,-1196.17627569451,3641.169162976381,3855.9074664103246,3982.667893466416
3023.2812006764616,2727.3794755447598,2702.25596653538,2662.639445581808,1712.2027765110397,2900.6171141069644,3027.2828615863036,3079.4810424248644
2526.845075943729,2330.489793709352,2256.6771068575836,2012.9507636676499,4100.939911925008,2348.12778697849,2370.3258549427774,2385.3129919046987
2048.4709052234175,1946.0542926228227,2037.187187925345,1666.3914076899964,4942.5290032287885,1896.791619409043,1828.1356454623674,1804.1510232885776
1941.9348217763727,1813.2442208004104,1976.5776869532056,1766.6064745003678,4007.4115166587,1857.9957320026879,1698.0579068537045,1733.038763879027
2285.653078098141,1967.3667513028195,2171.5456282522136,2402.50843685765,1355.5633162890917,2317.876482166197,2141.9936813871245,2222.6113478584593
2703.9778148780606,2144.449207387748,2362.3022279512807,2986.5782262663415,-1412.2587768383419,2773.880353032553,2729.688934651618,2859.645083272975
3183.481386890002,2588.5795989494873,2767.187086539285,3506.180184783603,-3968.354719464478,3177.184124911233,3238.9375401162324,3471.753970575992
4937.96712443178,4125.486760830143,4207.276187599513,5423.127921535088,-5495.622727424321,5035.383570807986,5254.2553602526095,5501.563449429377
5777.303585012436,4799.447811136895,4847.828286596487,6125.8452193530975,-4466.325882995698,5852.178785003001,6086.626427192612,6324.410515485564
5233.7114107204325,4402.538876570208,4381.832419495258,5239.140987101477,-1787.6783879394789,5163.571703656096,5382.594703682611,5552.099273699641
4391.472489306863,3783.820234225728,3857.9459439035127,4186.528870052964,1160.2928376472555,4283.891138753839,4389.893045064615,4475.595824005941
4110.761932255562,3569.7184076537596,3696.2138540712112,3823.3650442518992,3616.286452403787,4081.6101151833864,4010.5023865832627,4041.837503828705
4134.857080674512,3593.2149803218344,3767.764646687654,4046.640232778329,4412.064667892097,4232.490147329358,4026.2537374302337,4048.4207443163614
4477.799616917662,3878.7411292606557,4094.0659703963174,4640.349232412758,3360.6455819426847,4673.51107795116,4356.917191369153,4414.8326364737
4019.105337034416,3485.6049536900828,3757.3994400036245,4310.229689294356,769.6699345935267,4108.919812845328,3832.1899306866253,3972.4826540954236
4340.841763268487,3706.011799725209,3987.0694480915117,4842.475556590129,-2086.194259064883,4400.1876007844985,4267.743178934135,4462.981818522618
4275.7714228538825,3600.058717504362,3855.4310953110544,4698.501231232498,-4682.9280318728415,4230.074411885609,4221.074363892563,4486.864598453743
4027.685315301409,3387.1078631308483,3517.269055151555,4221.478226933788,-5618.5648974277065,3850.687891269976,3963.3621286485723,4281.318482137314
3994.482487768284,3347.948683374678,3404.523208661645,4022.5783193712414,-4619.400887718388,3762.7691067428677,3936.54344193179,4227.586524114289
3111.159473744963,2618.205473871596,2633.5540582697577,2855.9687367919396,-1986.6474263241107,2797.1604807688273,2975.827569300891,3144.4266593829816
2280.2215603893856,1938.8886096026981,1949.1567018501664,1824.2649841788516,952.6013952709036,1942.2707733636926,2094.8970738984062,2144.8096548307803
1499.3477987445804,1343.57652748689,1308.921250338186,888.7419419742364,3462.729891363626,1173.4824373320735,1215.4972405330627,1199.3039161205234
1822.9102638323966,1754.8422498150176,1716.4165496509668,1495.2520759179752,4258.473074991896,1609.7383792670007,1472.0537500171486,1494.839684566934
1185.4593508174585,1187.598426549128,1203.2443069970032,946.5810017914773,3127.269671740869,915.8042971760296,731.1323770765885,765.738038935815
1142.1466082843253,1022.6544051570672,1130.9110158540425,1054.2947177675524,547.7244935986018,881.1586562998709,757.45554294881,847.6690398166538
1335.3634590276197,1027.2147050919011,1190.6178804954252,1373.6672281551,-2228.9938315022446,1120.8692639690707,1127.5338294690737,1266.028841946434
1463.5699893771089,1137.4140178622474,1269.8876464625937,1507.6150479451899,-4812.870726810994,1189.6103560776828,1317.851111549593,1532.2374737927894
1412.5346092047403,1123.3118893253122,1172.2157147488615,1336.679600929332,-5718.7845326329625,1080.4788170544052,1371.402704315915,1586.4400131665607
1626.9853007252532,1332.596107450343,1356.2718989603163,1452.915456885501,-4447.844613934343,1294.0187804823945,1572.154912426151,1771.8891347031022
1204.0913951025432,1012.2297805178387,1007.8449837482476,787.8760038251203,-1775.2941236044717,803.4296291609498,1040.9457630444813,1172.638799852648
965.2757613730791,856.3591199027869,868.9485301815002,445.99932043932495,1182.5682561822905,615.9701295841951,732.3743956602411,791.4680202144955
884.4648399824509,812.1176248507691,871.4810037851712,406.3219120887661,3672.315829978943,643.0151113191678,600.1882095742476,598.1027685902518
701.4820942351216,702.3594512538693,743.4073605036247,371.87679569669126,4388.990556500459,558.2409412054694,350.2021786154364,325.2017972971953
859.5780892608163,1030.9143799349258,941.1154639644665,743.3733581231354,3185.1951214093497,732.1871352708258,387.8836055352731,409.89265379267454
902.043447862452,1096.2314454316947,993.0388160320872,1041.7648288517084,690.0209381544119,804.3596150282538,446.2627731233224,546.8865227696224
828.6066556140722,900.95725368282,855.2324844932737,1068.1365787229734,-2064.6607126773233,689.6661836800777,504.27675146890397,625.2045040474477
1215.1855317867012,1090.6999619283888,1105.0736676000088,1402.3748578962986,-4435.240239590996,1001.3533585026162,1038.4298846177408,1236.355885165307
2356.963446058973,1883.3568186576013,1986.3617832885502,2440.3028774308914,-4965.706313650771,2177.3672500843095,2458.444242283411,2691.0178120438504
2439.8932705880725,1800.7824162873148,1983.8885112615826,2298.4153444306285,-3816.116905682946,2226.5316227954754,2569.647657118723,2770.8584070831275
1510.4829374265246,979.0494509408018,1080.2623444132041,1070.8307037723134,-1232.2570996500945,1210.733265038958,1519.8003700975678,1593.148595658131
1020.5311523515265,559.2165460761753,747.5198667794466,534.7861526805791,1709.2446691240693,762.5337303864944,930.1034430556465,923.2427530544519
675.2040467999614,466.9927956866304,642.1542731849186,242.34495682860143,4245.536763360731,472.6534682590427,448.77174875017954,431.9853837355331
778.6363259966893,681.3847718525212,901.3050272959663,534.902820149262,5144.038594429076,683.022487438051,500.7883231441665,471.1477779385168
890.3931265150022,761.85089045731,989.3655021732993,818.6507338882075,3845.7957158899735,866.1557931604912,625.2509502099128,587.8211493141425
961.5746415104659,772.031755177668,1027.0304670650657,1088.6583746744436,1180.0068443486816,978.360737985844,777.8426953133603,784.5095034126716
1676.2877264627023,1315.4738129715552,1587.8158476756362,2063.754944004264,-1533.8816806490358,1761.7525669614552,1640.2461831817054,1736.5894079107966
2248.9558106817713,1833.58043219494,2044.4045172473707,2665.895878727577,-3573.8349058637396,2279.0576081406325,2260.9897314985283,2464.3912362575065
2754.2379232880194,2375.357755172721,2372.528427633457,2937.293042869016,-4082.7810125403776,2621.661633832642,2756.2277445056534,3013.183019593911
1397.1954334552865,1279.8741830348736,1191.3318800822744,1100.6072222710063,-2860.966130967725,938.4767917726713,1166.9025399560342,1397.326618889405
-9.165017543360591,85.58460992657638,4.575002788275015,-661.7712193851185,-175.42721204723057,-577.6565847174497,-307.79628130898345,-208.40830990832183
-298.19968119915575,-97.37858165043872,-226.72735071701754,-1007.5272171000834,2839.20450537977,-719.5814196347783,-599.9447455305199,-614.8223114918219
-1065.9139179812628,-766.6638866764843,-792.5250203816831,-1807.6826553390129,5061.383611343372,-1359.0509347339103,-1466.4527196643758,-1558.992784355738
-1511.815971491771,-1256.3087314334261,-1140.4526210686017,-2110.3739261924056,5615.840144557478,-1703.4300608125632,-1899.8772495995509,-1993.8314587899076
-238.31750312971417,-204.71855929275625,-23.794791482025175,-391.51372764023836,4678.498991732646,-242.31707469312823,-505.32086324173724,-563.796160324564
658.3626101017871,501.3493162261002,704.0677996123559,866.9922279812454,2079.268963402945,746.0999932737031,486.7372989751457,490.43405690565123
1189.5573645807744,832.160118714135,970.8061920889013,1511.520070984494,-845.6070150708911,1288.707591934246,1119.6906832727545,1214.0793308368884
1319.6740503367328,846.8849736968259,932.82545344338,1535.9458214541373,-3523.879457092553,1283.6260625924915,1302.0821762050618,1478.6196393901773
839.8897415978136,447.8176935845695,451.4767138661118,701.9155395250127,-5325.079689282946,579.7721662202384,743.6554213193886,954.9744243950408
-1188.0168254497403,-1296.5162286085688,-1300.8551023993932,-1792.6580224660283,-4249.998176524576,-1729.615685434459,-1405.2662548636144,-1308.9138742232171
-2031.9008960454084,-2017.1059451884503,-1973.5679393945902,-2774.3101725263114,-1421.1817611564911,-2534.2201957500656,-2227.8522535806696,-2224.8120920777437
-2457.79621442029,-2283.594980758906,-2205.439318929595,-3308.201478846662,1538.450118135297,-2922.078786094382,-2788.0942475667107,-2841.894653094263
-3575.8406321724033,-3149.5260212537833,-3156.5936608769844,-4631.258522715332,3934.256696519078,-4067.1212200973096,-4043.6314241481887,-4199.772238594334
-4124.648882751091,-3477.7059994265437,-3447.8452789659787,-5026.916482672474,4684.181155384285,-4549.0527082863555,-4666.268443517038,-4825.418771959419
-3588.417180429169,-2977.4262732185744,-2897.9091445111408,-4107.2203115671,3431.683941426847,-3857.6419206968712,-4074.8071775176504,-4178.132869839537
-2993.7387910427788,-2498.224067496383,-2373.3490934199217,-3221.1974579638772,791.4168641610522,-3216.4181220383616,-3420.260716036966,-3439.2023292059603
-2899.225146029057,-2494.5385413385666,-2325.586627741868,-2949.8102988859173,-1948.94689543602,-3167.362549443933,-3201.457653770456,-3168.4434402601037
-1927.0630456535146,-1680.4226254848181,-1436.7670007025881,-1774.9671150742506,-4434.891016215661,-2111.777729733134,-2065.909799281988,-1953.3529537329305
-1024.789237160774,-944.1769505591074,-722.9816765795549,-825.7962849451724,-5946.277626417097,-1147.538017295563,-1053.11086147491,-902.3811235797039
-740.2444231681438,-885.4292365563888,-731.4127689684392,-740.8746579875733,-4773.599588924648,-861.2274595248164,-671.6923856643989,-578.7282793117047
-942.9562365738675,-1080.2536333800817,-942.1548486029642,-1180.837154379231,-1985.3657633891198,-1098.0719054454094,-894.770991537036,-886.1260647097079
-908.1410547886771,-924.9542550836923,-851.5200588082807,-1243.2219545188855,958.8594191717857,-997.4886839909886,-973.9005480877968,-1011.1657466271863
-995.1613860419457,-888.2576496466208,-902.0109165175818,-1414.8710134095018,3417.1115260170773,-1014.16863340688,-1133.2804212059127,-1243.0835486555443
-760.6455769861495,-587.6212273551937,-569.3886014150339,-960.4090700821835,4254.01208527085,-647.9471382106422,-866.9965314607252,-1015.9866693306249
-884.4769996861723,-695.5896720364399,-510.99422333357506,-1021.1834169164795,2973.306351030369,-804.3842616461479,-1105.7985782986361,-1194.0433769621595
-1031.4581339503347,-887.616074535923,-668.2896250947815,-1025.7530130984087,209.3080853850115,-949.8733003240341,-1205.5374693195045,-1229.430013863297
-504.6321056841989,-534.1492439121794,-348.0963118656946,-294.60471837437944,-2395.82299663889,-392.65539295120107,-499.1817190271395,-486.0404492588423
-152.56769301333406,-221.77464123432583,-62.80566838030063,124.92806730311713,-4312.746936066105,-140.97914776705147,-129.2077684418473,-14.468291472061537
-633.0991982442647,-596.204665642872,-451.19066148351703,-491.91874228965025,-4284.737213476539,-756.1604739304021,-624.8386611005117,-470.9430932026735
-960.0942656593106,-888.5403965976875,-800.2593475654285,-1007.2093447372317,-2956.9861759240594,-1130.2343886666495,-938.9261342379468,-849.7941060525773
-1300.990566586319,-1172.066556695485,-1184.0252533967578,-1676.7770317752438,-271.84272331089596,-1505.9522869837092,-1340.764030624574,-1351.8770696037827
-1754.39199064867,-1563.472766107836,-1658.0966528391727,-2403.9572118278156,2664.640336754259,-1980.9978644156654,-1855.722114175951,-1969.4430125743675
-2212.9279517507093,-1867.6931544756226,-2018.5458174717496,-3005.9610610992822,5033.455565744895,-2442.101963236666,-2432.250751303829,-2562.2060744374758
-2979.6152252984175,-2461.093979216035,-2584.086358189772,-3723.818943212711,5574.130906734026,-3153.522882626232,-3282.298036648848,-3420.41122939621
-3317.830828418795,-2793.5855901680334,-2814.1270105087897,-3775.259458314278,4225.34440111665,-3418.874716518345,-3663.476882764371,-3788.762539422809
-3529.3199489045364,-3015.3363914342335,-3029.767969947163,-3744.6350905266445,1619.980941051057,-3635.712125214646,-3871.8041147612967,-3911.571277911513
-3075.569688768708,-2709.3514211123256,-2735.6549964368605,-3091.159398381482,-1065.7605146883361,-3160.3612640123756,-3255.412947876306,-3224.1533448613773
-2643.6024760923756,-2245.784485994751,-2354.6633985696826,-2653.11334318656,-3139.548719873943,-2819.574801485898,-2763.504001501831,-2651.693908960573
-3120.4936533487344,-2559.6873260829598,-2616.0470961043466,-3273.4939560052007,-3096.9563260621217,-3448.881497398819,-3226.6849292148545,-3130.528149051359
-3563.495367540163,-2988.258019124827,-2949.5623229862977,-3901.9517161801195,-1596.2118526816703,-3981.538183638462,-3710.889923355353,-3658.200801447616
-4168.205076819242,-3460.996719254974,-3533.195738852344,-4814.567482345723,1154.1765280297986,-4638.457234093294,-4414.363287565066,-4427.797449549893
-4458.104764841744,-3536.0150034665858,-3686.5144208502606,-5108.393608280894,4107.646227938356,-4792.827971279461,-4735.617752111779,-4863.607654251129
-4773.103584122553,-3736.168365379148,-3856.815913872975,-5419.319281378615,6395.6485627745715,-4950.218811980245,-5082.771917933438,-5292.700170964352
-5219.710233440601,-4145.407682478093,-4158.6346790682,-5702.3794288180725,6959.691528705371,-5257.151381321433,-5473.608010485899,-5728.077343873272
-4901.911724788108,-4000.815156015502,-3922.2473984764074,-5214.083806228846,5769.700312501049,-4907.218596028433,-5189.109628923034,-5387.157288245769
-4005.926947886648,-3632.833360076984,-3429.1523524121803,-4142.688674615187,3134.72634612973,-3993.2569272720284,-4173.695477886482,-4262.84092568815
-3385.705012545048,-3350.892948451823,-3081.6975071406123,-3282.361726795163,424.54413515860506,-3240.5309015306993,-3331.118012061743,-3358.8960910000023
-2613.8569389389086,-2478.579197160063,-2420.412232152383,-2367.6119481413625,-1405.3741356669416,-2377.880232089032,-2429.0220647694587,-2366.908055183332
-2311.3834553235283,-2087.2349262980715,-2211.859151495868,-2220.1985131893234,-2548.951485915244,-2182.5528550717936,-2188.5153080463424,-2069.968824243726
-2640.825761401502,-2373.2220949424445,-2517.9999917414825,-2797.4353051491416,-1412.5057862477006,-2702.2070365934633,-2597.479752531188,-2513.569351319282
-3243.3397051023567,-2953.4873858269675,-3119.2895293466863,-3695.0381498442075,1313.8039734152371,-3385.082864790631,-3254.096122228784,-3278.37302638415
-3962.701331224089,-3690.614375390578,-3901.2339751830696,-4673.746903358355,4187.521237428275,-4138.447036103917,-4104.976935187515,-4179.942100834789
-3564.054898912229,-3243.828799734856,-3440.169856319033,-4205.850337361899,6650.472073974281,-3591.1633396014768,-3714.411209970709,-3812.8316232947072
-2689.409147410057,-2307.389201395734,-2282.1926195965934,-2892.5501440991684,7383.383396710775,-2469.1244472602775,-2724.183802612406,-2872.828074155368
-2277.803808846369,-1959.9825299205695,-1925.9719199300125,-2270.330061302928,5999.339665296941,-1981.14317601328,-2357.2197611544398,-2475.026904644754
-2904.5231516766107,-2563.770827317974,-2577.8229541679175,-2945.9427852284316,3188.4753879754335,-2781.1819762895775,-3125.99378900402,-3149.35746859304
-3003.960722581891,-2686.276984042739,-2740.115789849886,-2902.5687414364274,239.705016034374,-2903.323231362645,-3098.438815707739,-3074.8033082773472
-3059.910579835845,-2695.370099104972,-2799.7119959495813,-2914.2946250311834,-2162.254738139941,-3001.7718719831373,-3146.8187760792734,-3066.5098644021
-3391.642029168548,-2940.6636283134067,-3089.2110100095706,-3476.217811529127,-2983.090374541473,-3480.4071319994155,-3468.0372366301763,-3376.268884321349
-3732.2616712951376,-3278.126759077192,-3435.7124223136007,-4037.612478864476,-2085.1675131525963,-3890.2515359484723,-3729.4257343533386,-3732.9347004148776
-4296.039571963206,-3754.0341862161395,-3892.6891407388975,-4802.838885414494,739.061086663618,-4479.955325914327,-4335.089908385327,-4418.326313654126
-3707.8945144701956,-3169.2839770764067,-3349.9358247127943,-4258.372294081941,3723.043208171404,-3790.9714523197226,-3806.512302536783,-3911.158493910233
-3622.863801026389,-3092.611259003358,-3308.0188063690603,-4204.7839872029335,6042.363677255811,-3603.7398474370775,-3770.707347085835,-3957.4381012208737
-3827.4579844375044,-3300.526676492913,-3471.719706642322,-4342.93060963242,6608.619475830783,-3712.754438996155,-4035.1844171090834,-4226.726824876068
-4559.110312674098,-3911.8678483393414,-4062.0512020702017,-4983.629808930935,5249.36586092908,-4490.981180184388,-4863.22876877952,-5042.605845901782
-4273.362327796131,-3680.0172774280945,-3774.432231871744,-4398.1561230052175,2436.221033875685,-4120.926105216091,-4493.832681129814,-4596.324278778729
-3866.7887887852467,-3373.856447366965,-3412.852241223998,-3716.662134645674,-815.8698511067123,-3678.423254991707,-3931.363681834482,-4003.3072259628425
-3153.7332640013374,-2778.5282407034792,-2723.5742053274043,-2770.2829373832683,-3619.933899629481,-2966.54754701562,-3044.448572768397,-3057.1263147715435
