-163.9997724807667,-54.473862960965704,170.95791258113297,317.5124915203863,169419.26144212298,153.23359592267113,-359.88935881176457,-101.57090123586066
-770.0652912170272,-547.5824251481258,-483.06156050939546,-397.2370225567231,165202.01434432447,-795.7478486454575,-551.0276130920781,-546.5347960149297
-141.20245929832993,118.76473185572826,-55.370047006859124,-94.69160841422743,160753.97913226765,-759.8607549185244,-259.4813018089004,-40.68997858312787
564.4678254584855,740.0666364659221,666.7093864204695,715.3585225121344,156798.35606741346,121.14586674828047,563.5633788795999,680.3006241944632
365.54606754711307,312.7590503990363,424.2818940562043,526.4571964687252,154803.41626309685,398.5132830662966,681.6514091327922,440.7786199421302
656.3357048198468,385.56518208682064,622.9917649560608,743.4675835143707,152660.48717941658,846.6016163694205,769.0937001694102,638.3882815710532
1334.0825615674405,1184.6322072359835,1199.2669096608552,1247.2136089438636,150231.90885837108,1472.3164459967415,1126.1396145811314,1077.9960582872202
116.52534128661773,222.21247752756426,195.88391441059684,229.57414029662596,151150.0866924373,848.0268439139445,-346.31029872712884,-173.84441770299918
-1302.7480333211117,-1305.3846400818104,-1086.3187122137015,-960.1307633487536,151329.80430967035,-226.92444944291037,-1296.1503352741227,-1379.962972085906
-242.8922263057447,-145.82550257656783,77.84950716166077,223.18443615889555,145101.53525045724,354.6742079988039,-32.97474432175261,118.0016110759492
258.06013661572337,824.0438083435027,975.5401681888034,1058.1589528452778,138952.14085305226,562.7918854542891,273.2703674160194,751.270720804116
-398.49865523822706,-173.99837011030013,-179.95922204213912,-46.020779331449376,136606.4459157067,-575.1692154312773,-488.05487339178046,-186.5035698446834
308.7831705786803,-381.25400869187615,-561.6294683463677,-322.86192557016875,133496.87822899967,-711.1281902772635,-712.2838630006027,-415.61195672841654
971.7602173959622,705.7266304106561,639.1270726425143,783.690338418583,128123.9703268595,238.35708943240434,663.8682114318491,636.6934726549018
461.2582112946577,308.5402050875475,282.23252690218806,338.16590554190225,127422.13570996886,165.08961629565192,545.0702405064183,273.83298431944763
-730.8946752100746,-1026.2051652099951,-860.9493686559497,-740.5698978710852,129026.47698873188,-301.48188829432615,-552.9051825357835,-1006.8641356469391
-737.2822605521084,-744.6418646702065,-453.81889001868126,-290.3312219408376,127122.74764494644,315.47413223360695,-221.47236890195845,-1163.047094811315
109.68942102425513,-87.0290514456455,24.529793389386214,44.44129373554597,126023.463689561,679.3488018071307,-342.6999612303797,-65.18847298655902
-919.7656218017169,-1144.1611131238549,-934.6110756982965,-874.9495697200173,125804.31064400403,-171.24746476108294,-1264.6502588193541,-1075.6044751343056
-754.50572442262,-958.5552068481095,-847.0139079150906,-796.6979030507373,121997.81578954495,-537.0223538727478,-1016.4838427331474,-891.4248976462966
240.1103223325107,121.0758479121007,102.32562434342188,202.16987481495244,114901.5620261794,-106.99909443089041,105.37852838775143,272.519531828063
-278.76821677994906,-286.4047405342849,-309.02498822882137,-151.98775441897328,110669.90728256805,-499.09495458695733,-1.9464201945143031,-191.73430190566296
-3279.589184573155,-3053.9107133714842,-2996.639827777548,-2730.930710830392,110977.56911136024,-2294.3191123414917,-1906.949361927936,-3647.672261618606
-2454.574714317745,-2968.989128348231,-2930.0205818519157,-2790.5842658625256,110585.50725119468,-2306.8639752087192,-1747.4686387026914,-2496.3701797507774
-848.1985800825851,-1751.1601601182956,-1655.6142173409198,-1655.6159641359723,107633.938631712,-1410.1864046223627,-732.6769112040884,-661.4493621196561
-1799.8793617431884,-2093.08303999258,-2076.888132475593,-2084.8648047959678,107522.00540950242,-1421.2909786987848,-1640.222186773295,-1610.3124543330105
-2227.2276958016137,-2017.1701640929696,-2120.700892658164,-2368.872850105654,109504.18551050173,-1380.4888544723644,-2906.9367150829767,-2376.786404171273
-1873.3452946446323,-1852.014680717195,-1910.0378598140524,-2050.9873458934835,109327.70389257558,-1064.806667957163,-3055.205977233507,-2292.118595523376
-2135.7501907739897,-2353.8015690406646,-2286.8527995194927,-2092.968590951239,106971.16890641628,-1037.2029456592627,-2449.9109592921304,-2299.6927528749875
-2618.81320632005,-2886.339074016443,-2765.9787472864773,-2495.5532152635114,104551.64952796558,-1664.7145441898592,-2788.4540267558004,-2727.898083627133
-3048.0101562311684,-3243.0827285520318,-3107.5264056169253,-2877.6725678062685,101928.95974597894,-2473.7131787518356,-3408.984009096672,-3119.527585296448
-2033.0474727351138,-2026.5276723153984,-1939.670077776973,-1728.2026976740126,96145.68940015417,-1891.9977964950176,-2382.7885109289164,-2057.264205366191
-1449.107786566943,-1113.6623234842118,-1267.5940167588196,-1204.9876764723376,91533.06776705524,-1688.748424543077,-1623.2031512104368,-1273.7991302104783
-1992.2962580730455,-1447.6157997916707,-1919.5811532932275,-1983.9692125436231,90120.38649041206,-2289.251076356697,-2016.767778863039,-1889.8602267427777
-1514.279884838983,-1136.4974623162343,-1730.1151730362544,-1722.3254293869832,88339.72634750791,-1684.7662281642151,-1944.3235044240391,-2285.741957594604
-993.4017401627461,-1368.6273312582089,-1478.0363964600438,-1382.571035085748,87731.58198625874,-777.0321911153696,-1466.607686013711,-1501.8429325316574
-2296.0674035491684,-2736.7298145657114,-2692.9327499745887,-2651.896230437713,90051.0501650814,-1385.2391287792707,-1720.5946567816209,-2522.2007533514043
-1410.4231221314913,-2093.554966496813,-2416.8797260553183,-2408.996889222799,88614.75495502539,-1236.0042127735105,-1338.9826798391732,-1838.50126845848
-1889.057275817926,-2428.348769806762,-2729.711013471264,-2597.269030928557,85469.8408867158,-1716.727801000241,-2228.7740620693803,-2431.0876306629143
-2172.2981684158585,-2517.8099088794697,-2219.1636168015466,-1965.9332640087305,83163.06514822133,-1501.6170403347533,-2424.1564074045746,-2247.3898485936807
-3102.7259017267133,-3016.423346753436,-2288.0037054039276,-2026.3907995182599,82320.17322480772,-1773.32833711266,-3271.2634596519492,-2736.731397887401
-3035.442265241538,-2818.0936192027148,-2253.735383633364,-2077.4980310464307,78668.41306338832,-2272.617572522511,-3091.2748941298923,-2525.2006449962864
-913.0375117045405,-713.9970452582493,-514.0400044654671,-530.305228692021,71093.91025405377,-1168.8058875031165,-1002.4139884144388,-471.7850351281231
397.5817507654938,88.96651239678613,66.3663696528456,-21.571486434986582,66004.2047212869,-436.76182929542847,-161.7566626694097,478.1946428333831
-566.8862012520913,-898.4901739865818,-818.271343012304,-772.0780602438681,66505.90172821097,-590.5344038775365,-845.5918580087528,-473.818868752227
-797.5996580427745,-983.5775275807464,-875.9488312579415,-646.6211262423967,66227.90725836903,-178.11963298262708,-713.6932706353473,-960.3135943689631
-566.314596447126,-464.0295936891198,-415.8902713011412,-306.62629343439767,64814.2160882419,254.64002987946878,-573.6488195094644,-738.9748455498266
-1142.9448849568653,-1227.71483960146,-1034.3342747423958,-985.5667732501097,65059.2077872064,-249.37653780587425,-1330.6662644158714,-1422.1854999800562
-918.4685721820497,-1280.8338631575098,-1038.8211435134072,-805.9384836512036,62208.374837086536,-338.52952186926996,-1130.9327747635616,-1301.6281104370428
849.7471815583922,605.288361247287,807.9042329560616,1104.1246566208065,55217.472074309364,1043.256445560437,597.7422202146336,586.6179666329408
858.3810832847594,807.848952454915,852.6874119885979,1025.434515189234,51266.93181692343,738.6584375602833,765.4596919862524,759.3895844973958
-192.71035471916548,-200.06057709735614,-461.54150320270855,-394.5475742193157,49817.36795840785,-684.511728999285,-477.4452288685934,-256.1914932835716
-707.8808757189327,-427.0902099819359,-601.2026811788601,-545.5939275258424,47117.8277166076,-921.4663049772716,-687.7844275635434,-378.19825505853805
-308.68736561503465,390.02613696117623,253.8883673261953,281.2365045921979,43486.18889205158,-54.400559726585925,261.55453330324235,267.1503960146656
-1155.0885396552549,-617.2598366102247,-655.8486970743616,-630.6655980527212,44030.23873102758,-432.86965141642577,59.54588901875832,-827.0902183902072
68.32544252248772,-164.8030401994547,-153.30677083576302,-118.31272270734189,44275.81927144434,479.98224101765663,746.0149993081504,-103.1679778765174
606.206564019405,377.52882325073006,517.549068034059,467.59012677620194,42873.02392495703,1235.5926721716532,1358.4038629550196,305.197624389104
-610.7792664787485,-511.05182095454074,-297.1434676951467,-367.72372049275145,43452.82545010559,628.7355843382029,262.31209265703365,-636.7609893854751
-976.7915215501926,-1267.4642590286894,-1166.5449895655256,-1052.2625436804665,43863.5039427774,-232.50911229807025,-1956.3656992940087,-1323.601998764956
-30.626800385151,-591.6238556175085,-737.5631339770043,-591.0998458890608,40152.56197463907,-364.63321300868483,-1710.8448760641186,-544.7326816798522
435.1027215402719,308.26650673610857,279.87488629138534,436.38633532097447,33802.21732882317,77.26967234149197,-179.904704734814,280.0989964551045
-1206.474100391737,-1098.2517626750923,-964.9728773309907,-781.5294318073138,31689.471771571785,-1000.8289166825052,-975.2756648237482,-1293.7168414075713
-2833.780960368662,-3019.315800558361,-2698.4636451083716,-2525.1410296930917,32243.611489558592,-2370.23822848461,-2742.595394975593,-3076.9854942401216
-612.9528739304878,-1431.3337215090942,-1395.6017878172497,-1384.8574336010133,29665.122294370085,-1586.806799471975,-2034.5874578059666,-584.4828662627551
-763.6278829736184,-1078.4487304810173,-1243.3111501420644,-1139.925363020593,27860.392077925615,-971.7686127159977,-1287.1516435820595,-579.8246804279988
-1856.3970236618406,-1725.6395229415211,-1857.5695066640474,-1896.3865549056936,30540.92178786546,-1148.1088538335025,-2075.5873241205773,-2000.7179260732737
-1601.5332616868109,-1548.3537016361734,-1627.620215061157,-1688.1252505472366,31477.07798204664,-733.1984076027802,-1945.9530397950657,-2037.0325218782818
-1662.2798375374114,-1822.7630851102876,-1935.4265984878948,-1974.6184081720494,30769.52723718155,-1046.6070038600737,-2037.438846048979,-1972.436603141723
-2336.7162472932396,-2549.0283989687014,-2625.0990127463447,-2678.9983835016756,30589.752830043435,-1820.5992423289135,-2604.854387604879,-2548.234034757057
-2051.92905340952,-2191.1367778053245,-2232.837369111432,-2281.414781443811,26482.45812125411,-1829.1332590813254,-2143.9356278732594,-2154.4602916019066
-938.5338873991495,-907.4021629402705,-1112.3279759529687,-1117.7358055969526,19844.908228908665,-1250.4582604151146,-1147.5947431485693,-1139.1127899959101
-623.6264060653266,-488.0184259016969,-905.987313102858,-1010.051205960197,16207.649167715572,-1405.1155232447563,-1200.2189104239806,-779.0868474000599
-2118.012932116828,-2002.1949205163692,-2411.5646570674435,-2603.6980317225025,16601.568126825616,-2658.3495618881207,-2577.3510691705887,-2098.047620138095
-2159.574664501619,-2029.5289772557444,-2086.433830604932,-2169.701983195002,14684.284333229065,-2079.465263015569,-2342.893684360228,-1857.620778424418
-1778.20336098189,-1722.7405526866496,-1547.0187084259524,-1538.0534469463164,13097.995964951813,-1274.9269119595992,-1806.856572411125,-1449.2315182516177
-1576.6639186738175,-1729.8938767545187,-1424.6829144764197,-1454.6516508463246,13402.745137652382,-811.3726543882804,-1774.605120232387,-1721.2713531585177
-749.3561572225299,-684.3091689883295,-372.03812443558127,-458.6406574071734,10646.185606854036,94.87841368381487,-829.424097367868,-1094.4251423952082
-206.35393795177515,90.55601255840156,58.9453584105795,-52.03642344426771,6982.8063972191885,487.05013030923146,128.77694761737075,-290.07590273999085
856.603504893239,999.1328200241842,559.0041620767588,268.2843575790321,4738.974036729895,557.7678230790261,76.13336900695867,694.653433609521
1112.4173547007667,1061.6584496196592,596.3742761551694,443.0494994917972,1527.2922204826027,405.74075878845906,182.32126256803167,558.7155114003108
1031.6816835113423,810.7761590308073,868.7715003227349,968.6147295720148,-5035.692673978396,429.1180565778268,1334.555969017194,1020.7537573354202
-620.6099640566972,-317.7728099193191,205.396764556368,266.73364277745713,-9675.47147727944,-511.6228138064107,1387.0057525455777,-39.3297832639073
-761.2684069889656,-861.0691752108687,-672.1367736367247,-836.4763146915502,-7769.672503738664,-1276.0066748463723,-141.90571305963385,-289.297063857608
-1319.7308851063572,-1456.7874819786812,-1317.884998367168,-1393.4707780556346,-5641.535170011222,-1358.729414254456,-1231.5908487574925,-1121.8639908876357
-1235.7024819227372,-1243.3046721251449,-1005.5854082180012,-1068.7353412038647,-5324.092333950102,-845.803521633432,-1361.4443633672781,-1311.2198884809186
-1939.7266545823222,-2009.0869962841534,-1695.100963231118,-1692.0620449960115,-3620.985927561298,-936.2051858804261,-1803.5014267849328,-1969.9120606227807
-2639.3407759306137,-2793.000532256672,-2526.837123867197,-2556.713896894129,-1315.4843929940835,-1423.7908901515257,-2675.430170535139,-2696.2524749992735
-1893.1017518450972,-2161.435702938572,-2080.3631604647526,-2115.0371363624,-2476.5667680436745,-1115.8124992814992,-2726.459627146556,-2213.8271337688348
-760.7641054778796,-969.599035743784,-1012.6459745659085,-1047.1027730921342,-6262.120129183866,-354.19420530136995,-1400.494159259295,-1103.405368668362
-1163.7182672621275,-1356.292058880863,-1691.1517381191516,-1741.3426023137145,-8670.20407187473,-1055.764695795653,-856.4039463462541,-1435.4295409826009
-1121.538681251026,-1096.5859373428102,-1594.8283511137415,-1560.9679183721164,-11768.998831150122,-1256.5003781696432,-628.7380519754806,-1401.516681101377
-935.0777229586674,-719.8793733003986,-917.9342705006129,-813.508275607921,-17035.501650602557,-1114.0530435675682,-674.6434255136119,-1047.8220151831192
-854.4555076198158,-769.2011272622913,-310.0762292349391,-249.16965177118254,-20603.261996803805,-763.155505255585,-475.03144921633066,-578.7118063419184
-2984.395412552418,-2909.6436486920284,-2288.911221789327,-2344.022845108935,-19132.423243635334,-2268.6307948087415,-2198.6318835163256,-2736.2974881203118
-2032.6337191599596,-2139.780239875123,-1820.9994286647561,-2095.0768702501227,-18885.990763925947,-2074.984801731989,-2363.2999511058442,-2132.999837806652
-613.3212060616497,-852.3800231391069,-656.2169507224171,-883.7186229047365,-20022.749945068732,-671.3568411901942,-1394.4944509171037,-518.6694523390033
-1647.2193021704734,-1724.2850367722422,-1383.8079079638119,-1565.025540306291,-18598.4238797836,-809.7038603251713,-2004.8149906030449,-1635.9003806848777
-2964.7304165094974,-2917.7017224500887,-2341.105666862859,-2395.58283828244,-17182.01095746737,-1497.4556583121157,-2694.0530189427227,-2521.8385452262737
-2046.9854075242474,-1280.5124964759452,-1236.8650205086888,-1341.8412464146531,-21083.801209405996,-961.7298102128407,-1782.9877635616285,-1651.7265832773846
-719.2948820362653,-389.26666799640225,-715.7306838354853,-962.6015439123294,-25285.123357729986,-957.6996794615261,-1212.5768901862175,-1042.2632566805696
-562.2685650496715,-1287.0004219933617,-1317.3435046365485,-1457.0000446098857,-28071.50403333828,-1522.9065344296105,-1214.9504211527674,-1253.0520307229017
-419.18530279678816,-562.191003355576,-539.5099936125334,-499.852375866918,-34186.9073771555,-999.9805959527584,-121.751090580452,-330.0786317948514
1003.9776142949559,1266.5960858038743,1047.8929046189587,945.7468418848875,-40876.09492104035,72.93187214221689,1417.1792807124293,1052.6515497858927
243.0598614479095,396.3716992895352,198.9757551971561,37.65739005127398,-40433.646352149546,-411.0060053923371,-47.12492902178201,112.9894001858047
-171.16593109194946,-220.18180844426388,-313.663939371545,-465.996926525695,-39686.94475180656,-538.0245096562139,-961.954729209363,-487.832797193405
271.5187541554478,-52.325677472981624,-139.2410530638299,-270.68253524134343,-40007.570568885654,-44.19537838330143,-495.3763840163592,-260.48203458175703
763.2679322386102,498.2733450282685,476.698786035573,343.08999638543173,-41053.913031761535,682.7983837557113,97.87249806801265,200.70595617438084
-318.13053814122395,-575.4840396315849,-486.27107742892986,-590.1338291059656,-39922.51160920318,-7.323655796019011,-885.6526032300608,-716.6732026263198
-969.0865409154212,-1150.063041832822,-881.9726086741284,-920.3883699531725,-40858.73438651953,-348.2067337361659,-978.7951817585563,-940.466935675111
891.15822825543,766.1431049635139,573.9949830279074,602.6100053429982,-48747.22216386814,420.56597351476375,1270.2890257714025,1330.3081711069972
622.4033207116881,741.4070143490098,769.7733930516115,715.4691291444324,-55029.20296571683,210.58315803893493,1394.9160750983574,761.7360149762826
-71.32802752456337,88.79881906072842,304.39878666048753,250.4346504770947,-55838.89324000664,-197.458056248739,450.11962845386006,-51.49549287484842
498.3305919521663,525.8678003633977,643.4210921309714,532.9734852780093,-57279.52493682131,11.127325455163373,629.7272337342438,853.9836129874748
1028.5337071364047,1051.911031357915,1114.8971698769456,1020.0943692241271,-60270.22396460734,396.8456565681845,894.9372878059221,1269.3128569348191
961.2825698791712,1032.3630755954364,1152.7730171510193,1076.5076589084783,-61045.1041292008,802.0790955390985,1277.1136031331262,1118.810501638669
814.7030320847553,799.6077264983323,892.348067077095,797.6198936632572,-61316.68550565094,883.7827917054237,1082.6999478296639,863.5824030463991
1604.1041518960992,1696.7650913315301,1797.8963229334477,1701.767759269802,-63500.56390254479,1860.1623449075269,1530.4903509331634,1480.2192733152187
3172.0990747791802,3255.2078904719237,3183.247517877957,3135.570723652563,-67813.02211491019,3015.8438335265964,2607.490371105814,2852.607009403393
2046.7037300747033,2177.1415873024525,2163.4502547259763,2164.9186411110277,-69275.34937361348,2167.559572388491,2163.5018164724897,1961.4832219175878
1473.6440192362788,1579.3401134502346,1604.6124413824873,1577.162441162931,-72167.9836813705,1280.7263815852202,1875.8117831961426,1755.8046965969843
1951.8824568694981,2079.8444083722134,2054.1181186146277,2006.9026986976678,-78096.91525341477,1246.7859036949594,2396.3902258825983,2209.3479472420295
2724.1919045743853,2645.0007212731143,2435.0149932149216,2232.583859129896,-81195.47468637675,1155.2396786676472,2134.1569486645603,2795.6240166740754
1698.2982949171274,1743.2147026967432,1633.2341362965817,1467.9582025113632,-80876.31348640565,694.4287326805497,1135.883798857889,1521.0629118805082
2362.540521074465,2627.4835566392576,2690.650109787224,2676.9364857674373,-83992.35423408076,1915.2301691462053,2295.1048680969398,2376.816977514929
2870.1017510362726,3209.1472014392784,3347.6800440956868,3408.81744049213,-86883.53393080644,2866.208747643206,3440.0871859103354,2994.9412777456164
2810.256070896474,3030.544396409052,3007.7137966661394,2982.7375825173513,-84994.55378954671,2913.052509994399,2831.384566199442,2881.479528306838
1865.5666200562118,2332.6952507617243,2189.386545141242,2086.811054987382,-83470.30789545644,2420.29718807483,1791.8601765473868,1877.5288568195974
2625.4573310707638,3130.5317679424043,2740.8974191694288,2631.9863324140897,-85868.3057225272,2741.0820773301966,2088.66895836615,2396.1024216123915
2615.9909390910107,2494.8590893027285,2236.261179059744,2202.7973849395057,-87926.31578681897,2165.666998727502,2349.725319752586,2129.883853238789
1241.8708133859764,1079.6292924948357,1225.3859410019795,1228.0190004042524,-88882.84398041945,1186.1368758931567,2252.2675416684797,1486.5221621192322
322.95493905067997,542.5332052503363,943.5719772663288,1072.790811112005,-93280.56239994708,670.3046871128536,2139.4704728166253,930.9278036054893
1270.9472885944415,1399.432165120641,1477.9643691421516,1464.8185466988944,-96786.43953473307,593.3347815375164,1478.1053659090685,1565.0859398666216
1813.258138244848,1690.7242313351453,1524.5317663406531,1389.8503589410102,-96789.30473931786,544.7593730860681,1356.2011354106362,1966.989873832732
1724.1447519841822,1609.3565062756315,1470.123629610287,1443.9475726417513,-98477.84486740455,702.839856692226,1421.4746795701649,1855.979225610121
2446.0438320511676,2570.2259869488043,2002.2149489999574,1962.2466961669415,-99650.40781968879,1553.7505507601163,1774.4344291561501,2168.3367126457088
2226.364717773591,2353.756615735845,1684.6322318553284,1527.2838699446875,-97934.66591200465,1621.7742498649386,1697.5268039035655,1727.0984220000682
1098.918168474178,856.6708134618966,450.9232152596742,313.5009105764111,-95326.51926431106,908.8241147623776,594.3267608102906,567.8888000626248
156.97243417289428,61.7852485348194,424.17391116840736,481.0047907404878,-96703.22995172767,1012.7871064320061,232.72839415157796,211.44010339417582
206.82971610126697,311.61230778155004,756.4648923897112,866.7706973087479,-98537.86320534162,1173.9173667876603,670.889657092368,527.1201839651476
-97.51389523747639,631.6488303338265,666.9928604408851,728.758079787156,-100058.94267449621,717.9737382635576,523.1384234819852,563.6929377120832
66.58347276319546,1269.6757206047478,1142.3088060929222,959.454448078046,-105032.62937314995,251.92672328285698,706.2761427936275,989.8127590981094
1616.2963076975357,1964.5150186073079,1874.8300395946353,1693.1209898948437,-110929.15469289618,664.0490344668069,1583.083787413445,1947.5842468087721
1755.7030112921202,1074.9662798751742,1111.4484003342732,1116.29499280436,-111308.9735021214,480.4535098702472,1358.8414789002127,1465.8608782299198
769.7687381040087,238.83867171747988,563.1872394827515,527.1318736857793,-110686.54301478108,160.44001707041753,934.6361721681824,858.5580877067987
462.8963853479363,306.1267378047414,685.2651799605665,558.7206459648733,-110852.55782809574,528.2763854303412,1037.4407455540932,754.4908675590341
951.4528337228912,1091.7350577735997,1348.8745957366991,1231.097620143475,-111317.5787133635,1380.2803805361837,1408.7556583582045,1095.6779907731252
272.607545308485,476.8074684350431,552.90007855351,494.67603679209424,-108917.68967854325,1067.5901828216593,648.2933041862198,157.74061982373678
-1101.7876991290177,-1199.9209206522573,-1081.4395536211086,-893.0724642037239,-106461.04646772472,79.98488438760978,-635.7461938255437,-1680.4758828766717
1130.1234541245212,896.033872308275,812.405712026899,804.2067975111058,-111062.67591778096,959.7185699678921,740.9234378626134,1188.0713667678938
1654.3754919418207,1782.6185108775899,1718.4546834438079,1706.319631276776,-115770.04870506236,1391.3324455322509,1856.7624652702289,2100.73892793947
630.1984013956317,922.1213523181068,918.1714832958969,981.8744420694347,-117254.97896519164,590.1075658845184,1064.5847896187552,1100.6815850846688
970.1704773534002,1143.6314417210451,971.2356148192412,1047.4988362303193,-119794.25525330333,386.0408319179769,1124.706791308141,1342.0072859254142
2414.537189089875,2196.1392615427467,1754.671928031472,1673.9491789531821,-122170.10151756159,838.1947987855965,2164.373834754828,2350.4074332383607
2610.7495149430324,2465.4941082143487,1988.910965466428,1775.1134668005543,-123782.40706884838,1025.3402485259649,2403.0247579905117,2651.692462431689
2775.8270962417664,2844.811243268028,2627.4083087636027,2555.5083779716733,-124289.06705168076,1940.024235125562,2406.9138349109344,2718.8206550783434
3077.4382247835747,3255.645853913644,3304.771612752418,3362.9148847726174,-124292.11425447674,2838.013438914586,3202.2917795995163,3142.4066225563874
2582.656530209835,2753.766674592189,2855.418718907684,2987.962939510646,-122947.38793958374,2974.751987286054,2988.841696202311,2690.0834782564125
1522.7587332477524,1581.14794235937,1617.3668775558945,1663.3502188582897,-119813.71955533465,1986.1666536260964,1855.6221657413844,1547.7694656282401
2716.4409034005475,2884.119825846741,2787.5283995064747,2741.5118586409044,-125086.3426547395,2460.197870345297,2905.664066534773,2805.0946915290187
3408.1995135294237,3786.1642974229508,3669.2436707354354,3634.4808922777192,-131383.6063794871,2855.497985677388,3636.1122660124056,3523.2133116881923
2954.2113718576074,3230.1218685507265,3123.90223601005,3089.357211659335,-134873.13493667822,2193.6355465953475,3202.6276111006337,3235.978778041099
3259.6895274711806,3388.329143520623,3141.219565903648,3041.097599409326,-135491.746024627,1903.7630638282153,3372.969528549638,3736.0749638933557
2860.4624933196937,3068.0457605317806,2833.449486819947,2731.9609171622233,-134534.4323700799,1669.5371352799048,3087.672728154801,3292.9926108449654
1469.8581443483126,1630.2853302486928,1551.6730678078384,1549.510116643396,-132339.01216237334,993.1719081207175,1937.8842868068277,1920.6131690606999
1517.473199449696,1565.2462339250233,1449.245344985833,1387.2838658962519,-129659.91700121952,984.957380549009,1415.3497544980455,1548.7141320012288
2445.024418520301,2562.27906219959,2444.0141728039207,2342.5660464811554,-128678.31110367109,1949.7376714371435,2271.766172281097,2394.3263181682923
2020.9940371945422,2416.637284902531,2446.6496226672516,2405.649032230539,-127346.98281052365,2316.3353208543795,2572.547266817057,1878.9017719178592
1956.4981206422653,2235.0234603996614,2177.123442608197,2053.639585644645,-128260.9543524386,2059.5878216150795,2363.041456921429,1855.1704259886656
3064.7234883215215,3250.789186949177,3156.3676720217063,3185.181243227565,-131889.66579575112,2756.4576405385833,3406.914505549257,3302.9658185108206
3422.343473508796,3638.1467242674453,3537.3385789260074,3529.087543330363,-134258.5238902779,2692.3396061796893,3765.381842237205,3805.6330329618295
2055.1354691034844,2384.226796110928,2282.0562994284815,2201.0855723464165,-135513.0100297068,1478.2372470411765,2891.468613715393,2156.901331307998
2241.636472971264,2367.2992135871727,2054.4326411891034,1866.3073043258164,-136315.0241497596,874.8447418059604,2421.776354107568,2397.592504475282
3850.49745761728,4126.896988248223,3754.184206419406,3558.26539560774,-135696.4731381575,2117.4440941734174,3658.6739330311975,4117.126055743275
3269.1301812087495,3479.0021189285635,3263.1384550567927,3125.2682756005215,-134015.13619909156,2091.2220997552013,3299.8130019085165,3634.772260004833
2854.8909490341975,3009.6173703372824,2887.8144920960876,2811.6168389075665,-131600.67792802711,2126.970108328318,3089.7394699861816,3243.1646789953484
3271.6435808821843,3503.1566695617767,3380.1230099947497,3355.2428983931495,-128728.815963862,2810.458609184201,3805.078548381407,3544.8390617024343
3101.6213413019104,3349.627877733692,3182.5057423523067,3130.86603466218,-126436.19008225203,2870.6108341513245,4045.4153161861905,3412.980536620231
3097.1470285096584,3725.400766692728,2947.2483680249316,2769.329839017588,-124515.78865128406,2512.6985434156304,3284.3878439886394,3090.5486248355737
3466.5265926311004,4339.065336064534,3161.0583978724208,2917.464106864092,-124281.16868084553,2524.8723818112885,3027.5581175819934,2999.4165596712264
3736.896045017198,3760.6191681269775,2758.461515345851,2512.4055132408903,-126185.29250247194,1839.1622803497412,3079.3724471683345,3120.190783064485
1738.6939872760995,1292.743487760752,1360.5212487049212,1316.376948467343,-128030.64813515171,705.1689236478305,2363.2737458048578,2172.563271228344
1173.5446446714268,1157.0470655854588,1856.414807756155,1868.3716281907473,-129326.12517692824,835.3292701632781,2378.377238539746,2291.53842726328
1726.43418071419,1559.5127580278859,2208.643981841218,2210.557229579492,-128648.67188400612,1020.498946760963,2216.940534046902,2604.1583313263473
1724.5921986200337,1519.8385111415264,1722.2944279310686,1718.2144813434497,-126894.84541920619,893.4859458988722,1729.5421443011437,2354.5795401486903
1696.8435065343365,2175.2300826174906,1877.983740981028,1767.264453356962,-124006.61380989524,1236.793388535003,1661.8875846883675,2108.558369280414
1733.0678576140053,2598.2335939242694,2252.008840706745,2005.412101574475,-121387.67229024926,1538.0758248031962,2740.0582904407347,2062.4543065755934
516.9991805130121,1385.7176281275315,1272.9348506985698,1133.550715610305,-119310.49548301566,1281.2186521074182,2103.8406710801064,961.9530985693491
-226.91236369685066,519.7313167411921,564.1633245740013,519.3578449118286,-119522.16800400661,811.6436881601403,1271.2373791243372,465.4683273241026
1168.1308356483496,1077.7128293159112,1026.1671374856596,1001.5796642281275,-121624.58188047353,880.3281213545706,1388.8803494386884,1172.3233277638137
1825.7251246777741,1197.5646871067365,1285.9034507136384,1209.6328369508483,-122348.10640558694,698.3684827343459,1399.1214439902105,1615.5645124645598
384.7807281612331,221.10784236398467,371.6959456409313,256.0283275442198,-123019.26063911384,-463.36981771236606,46.579668713427964,910.6285080385569
-645.4006997180113,-501.0129113090661,-389.24897263652383,-425.4395101398113,-123711.12148964265,-1276.9025412928313,-573.764217898759,-26.150533539905155
-1308.2628611069158,-1178.7356933972696,-1078.6373904187785,-956.0991998841346,-123240.2991985348,-1433.3878698604385,-653.9072714716021,-1323.908827210871
-452.7307049584124,-728.7432471038628,-762.8522095127046,-745.7527017815373,-121641.96607797313,-975.8190546634796,-233.1206664139172,-49.59419980033999
-257.4992257479753,-505.8644701242956,-586.6126437832718,-650.3665708249027,-119489.42803489696,-772.3270596940056,-607.4797287828187,-210.77581739542075
-165.1715788429865,-327.24727907004126,-356.6493547666905,-366.1730675094441,-116495.04833411239,-277.03038218571237,-494.0193576122765,-341.04263353621354
-81.39674924310384,-160.71418063337478,-200.8976909383855,-283.1331322966362,-115851.11005628528,9.809119179342815,341.46001338475617,-70.74854940432851
300.91338435203215,367.63561624549766,301.78527102185035,168.2277703895743,-117767.16401132522,421.45424464901225,789.9055919784441,293.5510753429335
516.3460796366126,500.9071073498126,413.53807276192674,264.8672249855008,-118630.49746440724,314.14328165398183,717.1710208634177,529.9643002577068
952.7305651040515,1051.0313596213964,969.1939539704472,845.379153807793,-120295.87531584688,300.21318829981465,1122.3916973632658,1053.98770479636
426.2857655465315,467.1822835956129,583.3024762816331,575.6913875478136,-2462.8775365987863,326.773397131045,418.4154910798188,397.0077464094041
558.1929199568008,665.6234511365019,767.0601668418792,769.465432414058,-3789.235835025101,182.17448951665602,431.7446249603199,649.7193371506323
434.0755825425739,464.0743652156698,546.9320939868373,474.55717933889537,-3941.947361117762,63.40296529347859,47.2398312296873,493.1289408001644
-454.85910389336686,-552.6473538214802,-405.5121726609593,-455.502665139265,-3171.5993586111217,-349.69758805143897,-652.8575367348182,-507.8248746258298
-387.2136674664897,-450.495896667834,-313.2541210874649,-392.8375374673316,-1165.9723235145502,-68.38416376977855,-468.335202468527,-585.3904393398143
-25.91574176950985,67.70671095960085,232.998043384325,220.70326756844122,1227.8332950642252,734.5231021098557,-55.68889573665447,-380.35640452789295
-13.791023278151442,-191.9031286737512,-60.54375970292426,-111.63937951048501,4199.781828913505,759.8284103004269,-611.5925583205687,-388.93959216006897
-1733.3022684881894,-1893.3520103769606,-1665.1223357693293,-1652.0983580707368,6654.681218533785,-458.119416284949,-1977.458724848599,-2204.7910261671464
-1732.4143871487463,-1721.994040650981,-1477.2502650864335,-1439.3861485717232,4944.24191015475,-579.858531219568,-1591.2472575397828,-2293.658689639574
-822.3881040905935,-1013.4004101295927,-916.7292315688128,-980.7828453001607,2673.310380452718,-619.0918410797171,-1136.6771099403377,-1036.1974907085796
-1308.6931011938505,-1594.208337046848,-1473.2209608819762,-1575.751224747482,1015.7209193240105,-1521.3673641387832,-1542.2609389688378,-1216.121595496179
-1229.7183437825852,-1275.1937404491082,-1075.2147178771093,-1160.1560249929862,-384.2629575979345,-1430.0949784168884,-1222.5748548192014,-1249.375907396874
-987.7519323735123,-822.6032887558213,-580.0146459469152,-594.6431358360287,-532.3831506627621,-911.7378526116436,-561.9685246136469,-1163.7946771092975
-828.0473427959914,-1093.5833177987133,-953.1978315739507,-916.894422153704,423.9574075773271,-730.5782928447211,-935.2647421835991,-655.0804347969388
-833.8264023582196,-1037.8870937254069,-1205.4163319277523,-1186.2870632350123,2318.342203009428,-603.3875056381657,-1198.5611175527592,-1082.621248141506
-201.57354298634345,-247.8477683248857,-576.81720019369,-632.5728718060491,4521.852850445979,36.393791622349454,-696.6071850433527,-826.6231258528423
34.94990795492231,-22.99690048087723,-50.84535128350399,-78.33947869463373,4563.310821336645,808.7386881047569,-440.0363109569116,-644.9998445915971
-290.2480127525232,-392.69093086232897,-179.1228369797027,-310.11905079055214,2049.535716222963,644.1742251988512,-619.7069623455864,-687.8126489906135
-131.92175005013996,-427.11544931645767,-286.6595646617825,-425.8070883305463,-744.5639507171472,210.4891682022917,-438.38288657904377,-179.08918356607683
81.23751734699727,52.06285705095979,239.48866030134377,129.1250040312425,-2843.2923483525956,262.0047958604473,-303.0535301218042,202.83622968932104
-886.2335056271586,-785.6325544432384,-500.6907499937406,-538.5886236679926,-4573.990008623288,-576.0087312646574,-1060.7689449245136,-854.1176806260028
-972.3944008959388,-944.1980834793558,-719.8562529771625,-745.5543323796228,-5857.219197443271,-1009.0291429743379,-931.5099462948074,-887.6457454935316
70.43918127565667,182.19581967166778,263.5771833520812,166.26555534436375,-5867.384904563352,-273.99837920781647,330.3785502133396,144.68835453673637
-732.4808837608762,-634.3835244440161,-538.5588772307237,-632.270385831358,-4970.336977286639,-600.2517789104322,-211.99330635349725,-659.6936699336475
-1907.1880902368084,-1999.1101302874886,-1767.3147409195917,-1819.5676824340899,-3035.186619127576,-1189.6286888162003,-1742.8519693109301,-2002.330613230739
-1618.1129142377304,-1823.1021738845393,-1504.0373774222553,-1448.301264719632,-765.2471581925456,-592.031375356516,-1478.7309625536836,-1845.2430097543001
-2434.3815189183915,-2378.9010824308752,-2026.944380439123,-1960.5918188300457,800.6417149759309,-880.4055381447888,-1485.418741446123,-2747.8133435338896
-469.25942431965086,-599.5439703326192,-490.0370079485838,-531.7618199930148,1140.5432051817252,271.5073666749704,-844.1002740911317,-678.0506555951724
800.6993753310599,674.221465275361,694.3212451527361,637.9047572894524,607.0529869842312,906.8055889777197,-123.06181795141674,428.73270296566625
995.0577571188951,1000.9586665615607,1106.6632202042438,1127.3589507402685,-1540.0160325910801,977.8845894774058,555.5793844994441,811.835235227707
322.91723581958104,357.6903528412331,503.60441267150236,538.1266734135661,-3330.7140217402102,251.02386353267866,2.8251106844072638,280.40393521633086
-1076.7146552939648,-1015.2438890559824,-905.1341549570188,-893.756098574655,-4693.5050158029935,-1088.345614218546,-1383.8362765697493,-1102.014952654601
-969.2868795300019,-770.633336780691,-894.4804470783474,-991.8322889079973,-4834.571407700601,-1283.8929360078773,-1294.4222250301464,-1040.2846008361557
-656.1802949332887,-469.73656615337313,-703.4603266250833,-819.1429013217676,-3899.133463414815,-919.9692543538404,-1104.8844928104336,-696.8273144682134
-1362.8372722779968,-1418.8034649319816,-1491.5643716412997,-1531.757240192721,-1936.7991626779076,-1060.7465737710136,-1888.4804788018737,-1394.2578369660368
-1206.7646060298102,-1373.0326143361635,-1289.82633361025,-1302.8520132974845,391.05695207101235,-527.7561359400243,-1557.6540454614042,-1393.4998493828134
-605.0724584748605,-691.5464592717835,-425.4375985543411,-433.3973455643136,2311.56637457171,340.83114266233133,-467.2924273203971,-874.3749627409998
78.58153742331342,-94.07834845516481,40.77086299619987,-112.68178917282057,2277.1503801722356,448.3518154461417,15.128114334191196,-183.05300617523972
-376.4825057171438,-798.2748606349232,-466.89039318064897,-521.6888017301935,602.1048867305726,-95.75587704033023,-650.8745958319341,-517.850925597515
262.874333753829,-220.07565589813748,0.5745473310307716,110.60262962381239,-1243.8789217198973,-59.26888319090358,-119.45453930544681,-38.10443461120667
243.284269997308,354.5021021595094,-103.10328281662078,-128.3415737237774,-3008.519479231545,-510.4789056358204,-9.050781760121026,-179.42092210934425
-194.86791377804911,518.7585914528099,-362.64014724204026,-547.2192747318768,-4345.416236669251,-1013.6905873273226,-603.1275700389997,-522.2167594102102
736.4307667603716,1096.6835487060089,566.7187573268784,345.41476173048795,-4174.64942508069,-424.17333779522596,-19.172527740331134,352.31710834403566
219.427790660764,-54.59033500490477,278.0647552427872,321.32011479634093,-3287.2071220613143,-65.63456805406713,78.64065351439785,406.93175482750667
-525.610255627973,-603.5227708308084,13.14989142671402,124.91823530759575,-1399.4833187965341,264.7399441858197,1.3892374786591972,-51.18576084187225
384.8319530948502,383.1694564871723,845.4524582761951,925.6178121613775,903.0762050411286,1204.1252984078656,714.141304776047,442.58450680605165
-84.11269816516142,-115.67084991465163,198.17384513380603,261.88719479589054,2869.2250899633655,939.3912403651939,43.76030901861304,-157.31157630365124
-992.7297474679071,-1162.654891155431,-914.5755415364401,-838.3019850915916,4540.9451574165905,26.357186778177493,-767.9645453966077,-1102.3543043976642
-1415.1649798849503,-1551.1291620791635,-1325.537913670858,-1254.7264337937995,3657.1897938512448,-638.7189657705476,-1290.49760559668,-1564.974450601254
-2138.002346275276,-1957.107660495305,-1581.405443454336,-1423.3131017104643,692.5246390841021,-977.6410192714502,-1293.3800776551107,-2339.707532024924
-2068.7861565274397,-1819.2437578389654,-1570.5033032811043,-1526.0472780520686,-1526.854207277258,-1440.0455213586047,-1709.944723624205,-1713.9723180791552
-1096.8410275648384,-647.4942561987373,-536.8827493413373,-614.323112520382,-2825.18177896395,-1028.291004752964,-975.5081100242096,-468.1171160293379
-1331.2129096262506,-1195.7035408867814,-1246.280640567289,-1453.8256748328895,-2838.388993813689,-1699.7205516284084,-1609.3872605821234,-886.8601603044517
-1103.5638607582878,-1901.9718988414934,-2042.9472160028236,-2176.420915312967,-1834.7079091122723,-2033.9907317799498,-2230.324426926025,-1737.615169699151
-1408.671260998064,-1963.826953685988,-1856.6959505285595,-1844.7877219094444,98.74582744564395,-1339.3927763321662,-1712.9361289254884,-1907.164544246254
-2387.7444581883683,-2673.259048217551,-2343.500581754499,-2136.2807856147483,2361.0181894978377,-1057.8615712579885,-1770.991006364864,-2653.835708729821
-3051.65583540847,-3312.4541501283747,-3034.604558443869,-2876.532350412257,3843.5258971455405,-1573.5944625590782,-2488.608888437084,-3427.7296387273745
-1406.6496584149063,-1762.5106295957812,-1708.7029767636923,-1721.0884785875169,2830.5584963483197,-948.6705524319077,-2118.1363265292457,-1684.6685610333734
-1186.5028011610339,-1289.9209315545959,-1105.860579666747,-1035.428427807441,1499.953662316304,-516.0688012357823,-1775.9026429198639,-1574.4295401425406
-1587.787171874632,-1733.422824743262,-1517.6186856489512,-1505.446057897796,-179.19562608926208,-1271.4531574308276,-2085.7708018123813,-1726.0608082155304
-1524.0109444821137,-1756.4588460134983,-1676.5836280504154,-1655.515419574891,-2048.1980203148123,-1691.1457262257245,-1574.2722672836535,-1416.188891556245
-1225.3735544237716,-1512.1900806589256,-1651.1292983518579,-1593.3089384449922,-3433.9751002580924,-1852.014533692858,-994.203149057641,-975.6747128932402
-1944.4151218724146,-2117.7859599711373,-2193.052240679419,-2207.368540982774,-3523.118590386206,-2179.349441995022,-1995.8095673508142,-2235.585959764765
-2078.7759419300055,-2355.7319739592713,-2278.00597129565,-2408.86619401761,-2420.4461507122396,-2212.5518350588463,-2581.429709669712,-2701.077030192806
-1952.1122566433187,-2317.051746358091,-2120.1884119479437,-2303.062988168007,-373.6681317517723,-1986.360369235459,-2754.665628919378,-2337.2483353281496
-2240.9394275381346,-2516.8655136332673,-2273.385558680995,-2344.4623298123115,1992.24694332738,-1657.911525738331,-2933.7947299744774,-2544.9106130331056
-1709.5284115774266,-1782.3588852225075,-1436.7297021188133,-1365.8059789961117,4626.453483592879,-675.5805079428756,-1976.3687822586871,-1991.658266548984
-1072.7875645381864,-1007.5939949339008,-746.8697281713903,-678.3839869880321,5542.5065480686935,-150.9838101424466,-992.043220536063,-1279.3820548496224
-1350.1753701241032,-1257.4778811831857,-1136.9513766709788,-1184.5313006683646,5192.7803323361295,-713.2685732920145,-1496.2259173406637,-1470.7420196739404
-1553.0546725546083,-1520.7498426663515,-1305.2789036788963,-1386.4543410336628,4134.477692971379,-1250.1004856396758,-1494.8292510750325,-1431.6240597633587
-406.89710305015615,-519.3405552825207,-366.0282041966857,-336.04280999947514,2327.1775990648403,-803.6483192308442,-182.5594380474795,-260.3084735573211
-662.5374476376674,-746.3642470196792,-705.6614090656294,-616.0517474801745,946.8917529631435,-1180.4151878728808,-841.3427637389104,-569.7010261471441
159.0444432111908,158.4827152276339,145.09971161617432,173.33914926002035,956.9106805312749,-431.3515918304256,-191.09918056651077,194.47791936672002
1276.534313402255,1323.825826169843,1282.61434684509,1297.7176049988702,2144.1683070741947,645.9741184216691,893.6935133153456,1327.6957144825428
858.8259616649812,963.6395721104054,952.5922564544089,1011.4631289493918,3895.194886800221,868.2171638509171,765.4810889442451,859.8235311886529
305.1690217399082,623.6528383932528,771.1767732402222,872.5442256166862,5861.54297217784,1218.6609439352615,992.956699153714,32.02155821672932
1050.9088549445878,1328.5199290792007,1410.323396689033,1443.2689035386065,5918.534446615681,1711.4556904545316,1787.2225013796124,617.9796420979837
1572.6664936289526,1433.8416018531134,1301.80289627421,1246.8176298366889,5838.598023072624,1456.5031404831243,1948.4862979313257,1720.6324922315107
626.7568762278024,612.4131277313645,620.7629893830017,694.7181376006265,4845.034121285811,866.2061224377248,1353.113995040556,701.0247499185425
1083.3841308663614,1282.4600788535681,1325.6480425480913,1399.1399600097648,1911.8067244804188,940.5299991391075,1416.4131428596957,1104.3527623778427
2253.8997994951205,2377.960526940158,2222.50119061389,2150.9869061487916,-483.6799455444234,905.7298159074817,1255.020596978502,2132.1849881806484
2071.311531905987,2378.0189955463284,2324.217084010277,2374.7686415491917,-1885.2376923889497,1079.492950019423,1457.4988312313944,2103.876743083143
2300.5768380545633,2781.8088519468,2729.340792773153,2855.3377183142657,-1918.2885069495333,1576.1499909365702,2328.6044126805864,2285.0884594575764
3210.2637694582663,3407.364772322653,3190.742100492658,3228.225420343879,-736.9467498691538,2095.6146570217643,2838.371694644389,3479.9766539957927
2490.3547478566397,2618.434102879917,2432.077425512238,2431.4449865404094,1245.4556704010138,1871.1526562107974,2153.6886307946115,2580.9357980608693
2323.232148522242,2420.6032797260923,2212.485900417909,2218.835487395496,3652.0695362969673,1988.028512635392,2102.317802017664,2248.7625147410363
2624.687819393279,2690.546091560507,2458.810548713336,2486.054610348041,6036.631295862873,2409.2141220518606,2631.446206696717,2558.6596456141488
2703.9471453208535,2877.0547312110793,2707.5796488169944,2734.6530532708784,6053.648302903341,2589.509976485191,2614.963923931253,2605.4358273956896
2583.3366628438052,2786.2628428761236,2640.777235198966,2712.540145618652,3837.573813555202,2302.1423416873768,2060.2761873307973,2534.2889865188044
2983.846548254478,3205.4391043909527,2986.0996486293698,3084.328498286439,1670.2702874256065,2220.9324930949806,2430.1688343863425,3014.855479081052
2491.644811110098,2723.811776531322,2455.005873862825,2529.691504588569,-172.43538138671283,1495.2577254494408,2502.671833733759,2732.7987755816503
1615.7408153761426,1977.0433757097853,1595.2813218330884,1608.6901816041172,-1419.4343153366717,634.5665497736918,1830.059962029838,1938.1243002113624
1796.0225016053846,1985.5943798258158,1578.3111895796646,1650.4512970092364,-1551.1020714980768,755.2004991729773,1836.5409804529263,1959.8784747736318
1808.6977081990226,1649.1752307343122,1234.4744144996475,1433.761789330496,-475.7345062721288,888.0380059763775,1726.347674790395,1681.438646427363
1500.3022396003907,1587.0084660956454,936.6536372319333,1095.8149166044368,1552.8814622845239,979.1720119324837,1250.9940864154669,1157.519932964653
1480.9361780016516,1857.1880235139142,1369.4087818271928,1365.0836135329446,3806.0457817585702,1428.6076148086167,1304.964157540042,1185.1599148676214
1452.719901080487,1925.3049710460837,1911.1027536454167,1813.09907417256,4557.769839322798,1780.5258153081259,1696.5346793271929,1665.2053669165289
990.0455228975152,1531.445093416285,1470.479043025618,1551.5286120438868,4129.477836897095,1810.244913686257,1528.4030854968005,1065.62594899927
1447.3881652906075,1514.8748021961492,1512.1089528132907,1654.456709369857,1665.272930263025,1769.9972271748243,1802.9373537211686,1584.3010656278057
1284.8045411986168,1884.196129599135,2097.7680239680467,2132.5592632009793,-1146.357311844149,1583.461868856346,2553.2517975420087,2053.8711463998043
1549.8990952196382,1988.0311617070583,2099.5816327542407,2179.014036431585,-2949.4897488576025,1285.448913359044,2593.084059700901,2443.741538076123
2650.702282987554,2168.9713504184765,2027.6154720388822,2031.785219912938,-4251.865830083196,988.3055733487895,2008.627164366102,2572.9807415784744
1804.7052468722077,1420.694099747122,1303.1515620030639,1193.6522256415878,-4218.2559739475255,375.0225897672585,1457.7372455080113,1815.1949518381443
1731.5953698554194,1613.1627534018908,1480.406577369636,1420.4396266056185,-2977.6491747991386,690.6744855928639,1887.2285495767883,1875.5996865571888
1489.476161832482,1456.5191133174753,1406.3376359627066,1430.483234653228,-923.3936172512367,1123.973639371653,2020.9506368462662,1563.7946250580026
545.084188883864,512.3336109446377,597.0436771431389,764.5870487524405,980.427226784941,1098.9898538196562,1667.3632742758637,714.6364702254123
714.1283647982966,875.9721798134442,1004.0138416714763,1125.6487416814516,2102.7410632079336,1444.0008188431202,1562.2172474898562,674.2732282189008
2214.9262275572564,2223.2355372582147,2174.0295487595326,2214.156239594025,2621.898064900386,2231.4538573756918,1742.8339490941971,2370.706852840999
836.3405193663463,644.227221075657,536.5141874522942,638.1953853722307,1940.5645308632738,900.6142064319747,869.626699013178,1009.0890815708099
1313.5860285903661,1110.7136720027079,657.7620610917911,678.0600356440227,54.297452151062316,596.9094234686854,950.90715574149,1198.1544801947957
1453.8919116425564,1520.4477580592716,942.7340719856011,1042.6543750147184,-2216.9084752014023,649.9922577714715,1353.6671769504346,1544.5382664362805
-55.501517864369816,72.44333654031288,-29.13624688966047,64.17698267636115,-3468.0485097843557,-270.2010143702464,657.3492326279352,421.3618999974906
-20.263300815418006,4.202684515135388,57.77390707949871,202.33981713548928,-3525.078796468857,-237.60558613312605,1015.0951302292126,352.92961208821043
561.0375888344806,635.1937907545648,562.8240922855066,679.5690579594793,-2320.7135475212344,175.58914245104825,1324.7441670049311,840.1810636789164
477.7742499793294,477.6976741301469,367.90025143095045,436.064308544037,-245.65102956031114,335.98208401456213,558.8268014800129,594.6735586645834
-60.53675828839914,-130.39358216792334,-202.61913644107517,-114.94467122130482,2170.302453263048,380.73034077130615,-453.5041749930155,-155.7057638674355
208.99702785862428,217.33342760355026,109.67298510935598,179.85154307971425,3789.578772029323,701.3310131176349,-215.40265169715752,18.72481660865492
1435.829400028163,1560.7472154053612,1409.8989294280555,1490.6034625012144,2076.1509280335013,1646.9534858091374,1471.650599424505,1402.2603646452926
965.2862435654906,973.7848695557141,856.7780594392389,952.9269934438707,479.12316914424446,1041.5074971146405,1041.754567871682,1189.1195195804182
282.3663603114255,243.9589929017984,111.73519308039613,208.2787532515449,-934.4463356304477,142.78676314138647,602.5885374071545,698.1900323562154
910.6186651414719,1038.9288093533041,912.517518565508,1021.4156658306983,-2646.1973696322093,436.9655097735158,1181.9822089712288,1242.0946587318792
1482.1014376464263,1667.4263100045682,1486.9790758409672,1543.3579793586523,-3779.0117796567865,602.6991680228166,1340.058808797614,1789.5700595675348
1141.8581787157418,1329.0128132937225,1192.5611284274491,1222.6683307349558,-3689.5484698005203,377.619491701882,1089.426404081205,1458.3665553409219
863.5576974025298,985.7405614153577,852.1373126146336,906.9776355306585,-2485.1498863172237,337.3731363940751,912.1381345278132,1110.2965165103815
960.8263947384494,1054.3315982375861,916.5808135558855,971.0776471691879,-426.00420574256714,761.9196838288753,962.2496316621628,1004.6524233414721
767.3967577991934,624.0585715339184,421.37732189883536,432.6674715165209,1670.0874051259416,694.3445506953649,1197.464516527998,811.9450929620689
617.0475725984834,577.2845609373508,365.904106751952,400.05151349998414,2209.897937550875,861.4569098049105,1136.1333577447222,680.2574291143501
896.2930082824732,959.4565405980884,797.2497824476013,826.1989589248769,966.9176425383994,1051.4471911977598,745.2227377306863,818.5484752386183
608.565543287199,624.4805836455598,521.108146299106,544.8916609049047,-431.7636654758462,575.3365618003772,655.8212973730206,585.1389023522643
212.98431430280107,393.282979546213,386.2573976203057,469.7040300395238,-2058.9387761203943,201.89468209878032,885.9774366355341,272.4444206592889
-279.80553172170767,201.4148365877918,239.2923033627485,379.0377564866467,-3787.571327441783,-242.9761473010367,654.1390958013562,-560.6498622899562
955.0727738848436,864.0673054862345,591.6815398630024,551.1154071833953,-4994.97985440218,-278.33849815239955,266.24747024076714,1374.7920780447494
60.88132248451075,-53.47904378250314,-237.43120799495227,-214.94055694707276,-4999.580819952558,-723.1919492601082,-390.3624871706161,552.7368906455431
104.36187968469312,66.47987810320046,-46.53927669938639,-3.255262144117296,-3741.1208214248745,-322.9056520583363,115.50087862017972,449.5875775742861
59.84630604049744,12.232822640598897,-3.382251633127453,131.3425227078551,-1578.4089463263945,335.05630645842757,134.71494293691103,327.14775718691453
-209.68327264599066,-371.63829413641724,-462.9175053787221,-380.87372937020336,638.5438094390802,245.2331312770948,-510.1058635195859,-258.069644180272
443.58219334947717,436.159210953585,287.6333336815187,341.2509062480167,2192.6492293796473,928.5456718047171,126.10065030022088,301.7933527065361
825.5946329366925,809.2464150953165,507.13630827539237,398.92540074680073,2651.431037989183,697.4373526875206,788.2280561924199,793.3524569124693
-41.86723702061863,-108.95341978453143,-189.8602829978263,-261.50616151225404,2392.5846051058525,-145.2971600847559,39.62738854129566,112.50696947237702
-247.957040699137,-192.00815330820114,-116.89675839730626,-33.57929485131899,1494.3733254420004,-239.0896848235716,310.52717528466565,368.99387815517184
228.10562751964608,474.10582355433144,254.6705854562897,226.81380637419352,-393.0865498149251,-412.0439560458617,830.9412672847084,656.7717056939528
496.82785575550224,800.1025235396155,388.64933869117885,257.2927526882522,-1633.7190632282054,-539.0560856301199,429.9797913303064,705.4915983466963
237.52111869616783,474.09969063657627,307.46259639376876,221.78783169158487,-1588.5958386967923,-436.9896097114288,881.8586168249203,690.107546604384
126.37756971181807,-43.254092425955605,75.260045903422,50.93087916924924,-497.04351461338047,-375.43739263323005,1303.9913803155705,362.79932312780875
554.2396309545184,-78.87021018506857,236.28146850226403,363.62864865414303,1058.1935137578766,255.93813082636916,1325.7299252337034,683.5125830880243
572.6989165173145,435.0107005750433,477.04030640009296,665.3956797739265,3116.079576068403,757.7533902414325,217.88037269493725,496.80410495239994
1255.9542682698302,1791.0175767098954,1648.3632512199256,1538.472114422042,3774.4321902021675,1455.7993473324132,824.6053609173614,1127.7008807426719
691.8347847762125,1352.1427747605849,1265.209777440832,1055.3232616428686,4059.8199742611614,1093.789422473743,822.4309205971222,1000.0160569854706
-136.90831534951576,537.2073420815541,572.4367247972768,546.2917233508051,2002.7736225366825,505.7643167054666,99.53453923453344,601.9835279450308
1313.3952970519713,1685.225078259904,1496.935377148653,1445.0355721775559,-918.6323404828981,736.8603580051786,1032.9765025252673,1626.9805962454811
2247.2095449471817,1838.156189306941,1595.2211707310562,1474.8625267610332,-2699.266304902605,512.9340830786241,1491.0470987348053,1848.0637095208804
269.3033446529698,48.22967071776657,-5.7724267402991245,-152.29263093007467,-3906.5134548242204,-684.526934451409,560.6014963180169,520.6218378992744
-586.6992714935332,-491.3779449695321,-616.816361762485,-788.3374101853406,-3756.43941090123,-1160.7297647461928,355.7228368123906,-465.55082610108
1043.86419288069,1122.63864682653,576.3107233656629,395.89533310166007,-2464.8943389805754,-68.86695061553837,1461.015223983024,896.0961679506181
833.9650850066973,602.2200481359687,82.24198614211855,-31.25006849116471,-375.9694558840274,-11.613991950114723,721.1597944365931,591.4233610224182
-336.5977655759889,-708.4464781609895,-776.5768675696745,-770.7307313988567,1759.6834648510558,-167.05281252768327,-662.0261144142023,-451.01815021204675
-1492.8500364901774,-1575.2716748936473,-1005.976594820735,-790.8247603448544,3819.1568458394486,54.301517776682886,-950.9586254865899,-970.5517265018607
-1675.8953722923034,-1373.009557150417,-1046.5285872718414,-836.7118290541548,5446.049125027221,-48.716141622186115,-626.0045332166119,-1600.4749408783573
-193.02365049597574,-181.12682029866846,-534.5612420760372,-682.9375144923761,3810.9671222575125,-366.4118605779695,4.946704319638229,-69.22901084527257
-649.377415540057,-281.6731010149779,-805.3519053741475,-995.664145083887,1868.1255543944753,-983.1720925309819,-478.5654681219057,-639.0043431039594
-27.251463881231757,110.86372051025319,-301.87328732445894,-436.1657471560138,181.6858342882697,-1091.653685948033,-567.2797346774678,-259.18227580841994
-234.4295990376886,-532.8108791938939,-491.38131961385443,-494.24289091521496,-962.8600404137323,-1282.1960549380456,-915.6211163783701,-33.263835283483786
-1138.1173398052706,-1375.814514898073,-1101.3773444394938,-1035.4370871548963,-887.0483371453447,-1475.5322295421574,-1284.708436303721,-722.8879747765495
-850.8689699980823,-1040.2244595337106,-868.189870653976,-795.6845538514099,402.47398460366094,-956.8905952853947,-762.277691290994,-504.03379696176125
-125.8003949136255,-211.29246838251493,-144.009784826314,-77.93982180111198,2443.5329177873828,-17.828301264913534,172.5750205328295,126.15368608262725
82.33590191412077,-84.3638282689135,-225.8479677319192,-246.91936918473948,4690.121673607788,159.72581821464337,118.65998805379422,111.40703481855235
-660.8463794098352,-910.2389592185973,-1229.276379081828,-1280.121850372314,5843.030543374771,-378.58650701718034,-218.0277570069702,-681.8006756864379
-373.59683678208967,-395.13819764617074,-623.4559754358852,-633.1113723894669,4345.023562564951,-41.26760357816056,918.7706641363038,-491.1161720053933
1107.0990350669745,982.0182623478613,896.6857940014088,869.1472431168295,2320.0843184509285,937.9155715239795,1828.1410202376246,1274.4232956386622
355.5038651316572,422.6052790501417,637.8646885648632,646.3858847942465,-332.1609739807609,529.3060344509868,1490.7143451763586,1202.6410036580637
167.85986664544907,375.0993687367045,508.26411081207334,498.7883046637362,-2993.712370295376,-270.5069284766869,-483.44998341650717,548.1410130730292
654.2767957068427,857.2276748634285,888.874694073118,860.5177450078118,-4237.993122586668,-205.01313152216972,161.5611042622986,821.8367405675235
-10.74469660702016,99.22307321419066,135.6561571456259,116.44863567111679,-3980.1747926935786,-612.444882740785,128.64953859600064,223.55285318263122
-374.53455012752966,-379.8953775785776,-333.7217579130702,-342.840288302079,-2647.3536309283045,-769.1046975976296,-428.4088986701463,-221.4540812199739
301.6945139760646,328.2670066683131,333.27976559352464,279.35927884292323,-567.2545736720458,39.188516683372654,-87.78706487027739,292.3235892343255
-297.3194475040982,-349.6659406472136,-301.8191938161508,-316.52408657838896,1566.605848424093,69.84588294705645,-568.7246940442565,-384.3874871371336
-1172.7009906697094,-1274.5630623698562,-1187.1413288292752,-1130.9764731019895,1950.5562761226392,-318.37324880658525,-1119.4210522778558,-1225.3300685981812
-365.86764218128155,-394.32027413740434,-339.3458416860776,-235.68310332915644,-188.9779167649176,227.9108385583313,-18.84521990518988,-276.61187652080844
125.88653201166744,142.47114417899502,168.19201025574876,194.44659937309552,-1690.0746887554924,170.65879932452663,446.8104441885698,228.53948393976316
-173.96267141967837,-146.51634700871,-108.99411386353677,-164.6471678649359,-3399.08645307014,-533.2023372800049,-277.7209283562588,-89.89641103206304
-627.4447198745838,-626.0889214002273,-642.632645498179,-701.9245859131988,-5180.133850915929,-1186.7986455819882,-575.0417311189558,-333.56573342297634
-41.34390030991199,39.75290184885671,-29.5211637210341,-26.635897537773417,-6267.170760537083,-737.7525657331262,301.81646884205475,409.19631807288897
-4.200556462874374,56.450889367359196,22.501061805676727,-48.39998884666056,-6040.504779844197,-686.2786736608978,173.32393566468818,349.8121522396141
-915.3120509911714,-993.6051431826891,-981.4863330234512,-1072.87752797567,-4678.828692406969,-1098.671166705697,-882.44843613587,-707.0658355645392
-748.0860597074025,-889.6883647563045,-898.5797448349076,-955.5049825725291,-2569.0586311195957,-726.9356968169177,-915.7988822754778,-643.8215463451561
-475.24306249158326,-620.9427351973609,-656.6938136815716,-767.0933829801725,-273.12952394005515,-430.3002137741223,-838.2883640789296,-569.0116111775897
-1289.6980421416647,-1353.738831030576,-1315.4977846528836,-1423.2121219513047,2044.30607660419,-704.7342510452927,-1367.3589027192975,-1455.6505620682183
-1208.8488281053924,-1243.579274173584,-1129.8157147909133,-1177.0432859977336,2863.886463595818,-558.7649450241515,-1257.113984027932,-1329.8997799740973
-331.01092571465597,-449.2608056783156,-296.33513431996107,-344.26375787000325,-39.985160572092354,-246.2358181945092,-442.7734281686571,-399.4664345696474
-498.405453878544,-522.2090194799839,-423.0751686834119,-500.6096378485454,-2603.679779338271,-625.4972779572745,-329.34786965615785,-301.2653316363758
-1649.6568114368893,-963.5411563463149,-1197.9822706716714,-1249.1125225059677,-4437.558896515419,-1385.1803782401985,-652.2638664421265,-845.6617908269509
-1616.3963893218188,-394.2756371808955,-650.1762396582671,-778.7419554507069,-5509.309630138538,-1251.8958225124643,29.691842029811596,-587.1607606227135
-557.5663743671321,-132.62010797469338,-443.7393932488885,-595.4246678955751,-5274.431237684999,-988.8561042750225,421.2752491496958,-899.4899152884427
337.1259119908773,-678.0734334038098,-889.5508768163054,-1018.3549607903242,-3872.694454524728,-1013.5653847286508,-118.67556913468616,9.30632120782684
-497.37038348345413,-1072.5733597170092,-1043.4778715256907,-1125.6192455353666,-1650.3431809306821,-771.9558365578041,-488.76705955379293,-428.37672237469997
-186.22309316256906,-464.74392360653655,-337.1406765873544,-340.01496394575497,626.8721863307364,205.82260492547903,368.6102449378268,-188.4393351704366
-298.69934864267816,-428.93608744670746,-337.0225218311416,-371.7785869293821,2149.1509847888337,244.40829860676376,-235.80677325736906,-412.55083753351937
-1130.2105529587188,-1261.625211872648,-1222.1244553609586,-1196.8507340026608,1976.1907581528758,-659.288439370195,-1288.0196895325043,-1330.0765758413309
-567.8755442100519,-716.4107782389383,-711.0510002121173,-650.0483225460775,-22.94558661589508,-551.4845355997093,-948.991681530626,-467.4291218772687
-265.25842263673985,-374.9822353605923,-339.7499382855376,-303.0541947363308,-1704.5185610008466,-524.1055567079039,-596.1376497065958,61.84469436137442
328.5378538511628,271.71636625106686,210.16473902525553,214.20205524946536,-1628.2296958442514,-323.8276515497196,36.25111224062284,449.08912570185646
815.9423355381688,839.2262072236215,719.244886359422,729.2381239596345,-2609.9150953413355,-73.57916520414352,426.79638810407863,903.8387485545637
1483.7176736458284,1609.5331347776028,1544.1342073044357,1566.027270157385,-2251.6419186421454,707.429524338982,1080.0624123854564,1509.257708557951
1024.8367742705254,1111.9831897860659,1139.7026370894441,1141.521207662829,-1127.0274525386549,702.001635072449,783.2087381756178,1004.360903150216
718.3602859390858,781.036017548864,814.5630530259732,799.4234724356011,-262.66154570521667,788.3196048532085,522.1079148931203,621.2538105477788
982.018359968698,1053.2733314717134,1050.7031118879358,1094.4735834018802,1493.4716728238109,1323.6844928366233,1020.2623769198531,875.5514367468459
1252.996775247052,1207.171857977989,1136.8306993115357,1303.9386705282286,1368.4805866971246,1801.8652052685457,1621.9615104506584,1161.152866643687
-78.69239995235603,-272.76365716164037,-348.6454410710503,-204.51525876828782,-471.33794152342125,758.8205296331762,560.1063146577962,-91.20844786540601
-459.00322489689006,-600.0217585518349,-637.5472585149337,-508.27600249892566,-1839.0794474521608,107.10010469608824,88.06994963110901,-406.64444469681257
393.2035299611689,379.67053807373486,350.35502629179246,454.8917497486991,-3689.7101279048784,355.6463467875028,519.1622821737792,449.22183284612856
226.2573962383558,269.63065900518086,226.54261296454388,275.59680945021955,-5437.037328949458,-198.84626397544798,-45.32634134302589,293.8872414000225
132.1314944062733,254.98254191727756,207.1800380616969,230.0084089649181,-6397.8566402435135,-418.905526284223,-421.858618319995,184.38471537805708
776.2775847047487,951.1931650663855,914.6556267441001,967.2470541146195,-5935.111126228188,295.4822084482248,604.5673492606311,926.8934635822188
701.6345904505233,799.6925915973234,753.4152254735927,817.6396651262648,-4537.211108831365,445.1554281210829,626.6992232643279,802.4605418026395
364.2858325114612,297.24638667534236,207.3966814385176,235.33158873648608,-2448.2653700396113,329.7210421054797,96.42739624291698,220.2475366949311
815.5791716815147,806.7779829968094,754.3751784434207,812.0411617276732,-151.09917829001643,1109.2005006817626,642.1072198587044,619.6090534956293
892.2139128252147,911.3801666574745,863.2930664562518,922.5915905200163,1317.2373091537083,1346.4856736042857,679.9537944795202,675.5401632886969
-183.01408488124252,-281.59833331087975,-272.5627524107458,-215.62938371478958,1267.1182376435245,433.8924152551117,-525.5313122181233,-404.3118935711682
-839.8008387527443,-994.5890850205997,-987.6038303231799,-877.1961856418238,-395.61962842695357,-354.35747044556047,-1163.2259225376656,-1000.8973121791405
7.812970791150292,-42.33145998397049,-76.26155906905478,30.463938738515935,-2396.8467935642184,-26.162027707085144,-186.9840638343694,-36.63775042366433
-587.3662943705385,-665.1089455810325,-698.8265175734459,-627.6598917946758,-4148.28444208359,-860.3768404431994,-282.50909387591946,-426.18374497751574
-1256.573339635086,-1361.7413622034346,-1395.2477456757806,-1354.432920833353,-5229.822039726656,-1489.9929002629578,-801.1047888509765,-916.964084320809
-584.7885056064015,-623.5044938403462,-611.941935016871,-540.47984513756,-4947.847645342277,-681.1719271131487,-281.70304124367703,-342.0088928249097
116.68212645426229,88.1773157880034,86.70816309801285,108.87610746199152,-3358.7515082374593,-23.956681972148544,240.42665319236312,335.0131027021216
-765.2802226218964,-787.625277632007,-684.4140648255197,-638.4601395827767,-1239.3061159905337,-261.06125179253377,-907.477721369638,-859.3396529869806
-1116.3688118298433,-1205.3640813938437,-1114.7617550111427,-1070.092527238634,995.4599294195432,-377.056545396139,-1219.7946622479735,-1359.369338158087
-295.9319082594229,-310.6015010048941,-292.34118025104226,-251.93922027550434,2681.9070997714953,336.07221272139213,-351.8571311801561,-585.260052348619
-452.5803466627567,-506.0359154175417,-510.8179382218909,-455.71600950346965,4390.687664112404,53.84724711017134,-488.217920223663,-637.4188504033891
-1134.5940635591865,-1268.4611357416024,-1274.2100744944369,-1202.5065265603962,3627.497675619219,-819.7465943208354,-544.9720484195573,-1113.9168259593089
-1147.42482713941,-1077.0923025568618,-1008.0401167596162,-877.9704584830247,1199.3335594452801,-861.4648781900933,-154.77370446472014,-1191.6735415567725
-99.5074612555743,-155.22085427795696,-184.29426277222422,-97.90464109494815,-843.7833815573103,-478.2559841508105,-346.19983719118613,45.9259412423437
-816.6292603938332,-877.9749103440638,-880.9476476192762,-824.008307955786,-1760.6014590760533,-1109.2685730108647,-1041.8391390917773,-485.6924322236903
-206.41531424816128,-172.67423070453123,-226.46862022788594,-152.93916834712377,-1418.6135159711484,-686.6265861961408,-652.5161463459178,186.24823961288803
720.9682210370328,778.4227934857579,714.9966587457081,759.1563805232322,20.77789138292428,299.58935906556303,774.1018867052335,945.6921795768906
228.98379138877203,245.20690695061717,312.7677878674596,394.5318985395361,2143.977122724231,531.9768841855457,970.6206433430431,348.6258806321748
201.6309976937482,209.77754239079604,266.9465665461488,330.25492120497483,4393.438999574522,685.1531358725551,63.372238466687804,-170.93232250877372
382.7949158328079,387.89984025673243,441.7201811367006,474.7259463926234,5892.125752297834,859.3010367454763,-350.72502411692153,-205.74898449195462
581.7646738607505,660.6058597305728,693.1548585191647,755.8599419757729,4363.905192658771,952.6087183548279,287.47368533777535,238.14926857818818
-22.99080586580112,158.03399159982973,123.58895051142599,140.04533385088234,2809.369525088954,152.1380253994539,-302.4791518750551,-242.8360358324303
619.1363354973605,927.6232616963366,981.11836678601,1035.352669543423,1010.369346107731,534.9793424718337,428.12606994951216,579.107533523737
888.4002306888688,1020.503008632224,1083.6317333052002,1192.3540844438094,-1333.6151048643587,482.7819506454389,934.8441826550561,973.2306774411018
-607.4822805032445,-443.3103052250508,-371.6051841876106,-274.5293685700117,-2590.2877369990347,-704.521438880708,-175.5412788592148,-477.32723314553186
-841.9288307823235,-955.914496628563,-1005.2795502662248,-991.5518409353053,-2275.002820277521,-1191.5646614866973,-1072.6200148623152,-711.592151382582
-353.17423724745504,-346.82179221149,-437.74612046252923,-438.06054891122585,-752.4916196233826,-604.9208046985987,-593.3860978043724,-372.18728947802583
-450.64895748454956,-519.1013832050721,-587.5250910385525,-540.9847473970922,1604.83068869391,-282.1339974486568,-591.6630778045792,-557.2673292132156
-689.0683718156617,-888.6786804264179,-861.9713418594827,-721.0200237804816,3833.744737308545,-58.065239848082,-584.966602644962,-824.9249746374475
777.6532717724301,799.6011390523349,658.6673486573909,827.6449861074984,5206.344264255662,1253.1801638566913,1133.3107281830682,616.7290366522406
1106.7333205124273,759.7024561750545,425.2620959985991,580.2220463037611,6313.154356714102,1050.9415140597903,1244.8394922327395,816.2273140008349
456.82116862999874,-47.53494676709124,-529.4107385143211,-385.39007411287,5303.658825422941,244.87055072502153,734.6207849304897,20.598261610220106
457.94736140243685,615.6801760533122,-73.51656422220617,38.69910492063718,3263.7432613311485,203.46206101044027,916.4337849468429,380.33871582276834
495.9505280617177,1210.9416068358742,874.9655731058099,770.1579688847651,1547.6278138382395,48.669956967280086,949.5715231622285,887.3560526135734
478.8880050563448,988.0332957503015,1029.9809834833532,969.6920442092796,709.5366033043438,122.13335303614804,637.5852685129785,926.657169134689
26.30085062508533,240.17470967229474,492.19885714933207,647.6110781561601,952.315740292498,8.722259949701765,50.42382083916618,223.04519732438803
260.40017531770445,286.5200443365702,521.015729104769,633.5860524369573,2457.6030111291293,191.09449896402748,244.49726138156802,147.87992467181994
424.2492362903231,270.7692430382649,452.9558747576375,458.156205790021,5373.002272277425,266.6564317352231,79.47948304883994,525.7635512505558
-11.04884336692703,-198.45791634028774,-75.23078157731652,-103.95654343427304,7940.177295843421,130.40899220069696,-521.1330381555299,-142.44064633470862
331.9429757742546,304.2098177383141,499.4364937078981,463.912578856618,9079.707355713983,669.8947400356146,-327.4670464908313,101.68731120770917
691.7270452065322,1096.808378273333,1243.9594345788,1235.573466919117,6638.327272413186,1202.0139155548013,724.2862691252003,870.6327151075211
-873.7012833315757,-326.6112809545084,-121.5666911648641,-156.81557431721194,6411.330177340973,-121.38099445148691,-409.70197225614083,-290.1908464489252
-896.1411177650698,-438.2085393359348,-370.02233107323445,-467.85312976092064,4993.500590309486,-763.6007603160997,-528.7537829065013,-320.27298798807806
1168.0047591101902,809.6246186404378,640.1290987107541,533.939254180028,2514.9119722030955,-288.29608100459154,354.7927991165534,785.266146152253
616.3989131637345,232.35114810613413,202.4819540261451,113.90399503595472,1599.9845383363063,-570.5977745956725,38.55699830296362,343.7193605729708
-1185.8122601061168,-1503.6549044823087,-1520.3777195149669,-1588.4635012904728,1806.283302771335,-1736.35020020705,-1436.0525405610974,-1258.4070796034302
-807.5498601160116,-1068.5739741426369,-1136.0323271459656,-1172.7887355099547,3171.6445515543674,-1238.0059577075517,-1054.2291180821844,-936.5114742701471
-5.994039589290878,-90.93122861307984,-16.411764388035408,13.852222980332954,4742.780417410373,61.68961697962459,-64.71374292838482,-75.33266337778332
-501.39995745137276,-502.0682517200885,-355.2441635525529,-318.19165823488856,6796.528300136917,193.88667391504623,-414.2092117103625,-536.4107609742314
-1519.0525021043309,-1593.484811421949,-1405.7118997071616,-1332.007353316506,7038.065285701428,-337.661611280565,-1465.304422843442,-1638.5778039500506
-1358.0138390826774,-1424.005040144396,-1247.3769362798892,-1160.1778861446246,3321.519444415928,-319.59679495378623,-1372.3895608696528,-1495.7309919560914
-1531.9347330897306,-1256.5836198794327,-1171.776844545137,-1127.989306315591,1202.3072220610193,-677.464364704691,-1188.3446189917754,-1604.9897123369396
-2827.2398369849425,-1987.392300489818,-1928.0384240875499,-1931.377957398894,-266.63226944168855,-1704.979667084338,-1606.5641600450997,-3114.1639021101596
-1488.6809294401878,-1039.881767809701,-1365.6907836412342,-1457.7306724515818,-2009.4816533661506,-1677.3536475715457,-1183.7978378205748,-1584.402869684835
557.2453478599559,306.4224854924107,-132.9825304846645,-286.2517519016039,-2778.439804464637,-869.3528947524335,-129.6714936312219,657.5091424072043
-1041.2341446258674,-1185.81475567959,-1119.0490791411376,-1102.8875649404995,-2499.8574720385805,-1241.7206569959694,-944.2973840894529,-575.7477276126383
-1357.6976325192918,-1620.9968815467087,-1340.3227250647715,-1280.4002324652959,-936.0630980540009,-1139.2406389013572,-1327.1614386091233,-1127.3970971830922
-439.05292649720377,-800.3897665020904,-564.3389619997552,-386.16448723021176,1262.9100169423036,-21.59369928368369,-476.4949415027186,-468.38377659797334
-1331.490521498794,-1742.4012950880233,-1576.6129165277544,-1449.3978501169026,3342.4417875795334,-504.9395452773065,-1439.4757546051287,-1359.6407765879476
-1634.1735726694997,-2003.6326815114398,-1967.4787273188103,-2052.3965507297507,3713.2753797790356,-1037.0950444817422,-1857.1190511723871,-1719.9658736987985
-1247.1216098742843,-1541.4952494443587,-1592.295284794698,-1721.5402862237452,1993.3473816013138,-936.8935477757577,-998.1489611676734,-1307.4548311674534
-1541.3612741624238,-1863.7970911993925,-1834.5294803662546,-1906.1434662603806,-52.749299493953,-1377.6221860338537,-1274.010603542063,-1593.3416572972
-1274.5148526498142,-1457.3633036228293,-1403.3573051184703,-1458.5728346787946,-1981.3588765252352,-1258.3410344907888,-1301.918113045418,-1331.1539856764975
-192.90479818727,-123.3971324937338,-75.71061404546708,-71.76508104507775,-3619.762350092453,-582.5575968379508,-623.8679360799761,-283.08269614620804
-420.9761721460927,-248.2296173699051,-79.22386447473218,-19.47841722928206,-4483.305573653248,-599.8429650005746,-374.7307969701433,-296.2625636809189
-1103.1878619802355,-1153.8248829023214,-991.8589139102132,-973.359289611577,-4082.3954729102406,-1136.3883546292182,-1247.6338429444677,-1060.9985980792899
-1142.1338877784292,-1265.2251686857398,-1171.0638561721025,-1264.3293393964523,-2564.5133898051863,-1264.8446301281529,-1462.12093164404,-1260.704661330401
-616.6086197747936,-685.0979809172095,-603.4888708585277,-662.276670803687,-417.1462116473631,-523.2271638457587,-920.6351185589665,-973.6850901054822
-940.7160471296665,-938.9956918041244,-1094.1555110256995,-1127.6533754054271,1941.0662460591266,-527.9248530888453,-1201.966791915158,-1608.5725673740963
-1318.6181232307936,-1630.9219799556267,-1957.5681516190816,-2096.5242395863224,4844.747736168938,-1138.688963434297,-2332.8616052259604,-2001.231984886941
-1212.6657499567518,-1411.3642911506067,-1645.2494874762779,-1677.6671806530576,4948.979661507183,-842.4649650182018,-1966.3552207610192,-1791.3171922992733
-287.9514309326478,-241.17264042522947,-111.7297223091482,-131.9819499031546,578.6140264653222,57.00268723499903,-289.26880343996527,-299.7479211545906
-764.6444957694002,-650.3717222915147,-485.85231289533476,-633.5768171673408,-1710.8290051342774,-697.9835908171917,-320.35366997684105,-473.31914330943255
-1080.8467387392593,-895.5151533107164,-990.2150940630454,-1201.8107577042683,-2958.1608411614507,-1479.1438825531495,-430.99314481880356,-724.5559603728689
-241.6917626645518,99.98411028929331,-87.82828278687884,-228.31782549503623,-3505.8533837282666,-913.6267263909576,111.01203403449472,131.30787568731466
106.73218216708483,428.3243783249927,456.0150205468053,421.0766008722785,-3076.1751839863064,-251.964858092153,-180.76871330845825,266.0594441089452
-535.9194029923237,-432.661978033022,-266.5800875516579,-278.37169404963424,-1471.8869205339288,-505.5849263330092,-472.7158071395861,-485.25185754654376
-271.38324291679965,-427.95825810764654,-190.14525801494528,-131.08537035881818,794.2419635077749,-49.83999543068421,-8.204846046788589,-476.23132492052537
313.4845723149592,-240.8570673804461,143.00287846717038,215.64900291134472,3007.298965656264,515.6964695058487,293.89753789345923,282.37776860057056
112.14733949232323,-500.52792882751964,-57.26648736440984,54.79933421323949,3657.361147165466,670.9684259939022,-266.1894075813543,-47.360617345748324
-182.63115682704301,-230.23214694701164,-134.6634939717078,-23.299595534022956,2435.2205756358235,644.8346784193454,-305.3938115551791,-334.1619574846518
230.21926699472897,626.522846951164,489.2225922230973,397.5247018811133,249.78529952876124,456.3751017944887,176.01275737801188,145.4309003530143
624.5340396602405,905.709188188699,990.5736715967541,832.6599682879569,-1597.979210167934,490.4006910396838,940.5049868456117,715.7255468611438
268.7276907671949,411.57078751672816,555.7158077538807,480.5343946851135,-3293.6117013448165,76.61934582854701,687.3908818054406,590.6214514259664
876.1310347620747,1118.7630598753167,1189.233843400314,1113.5264716937781,-3848.174964121812,357.2562535315683,1233.3564983289398,1177.0680931456154
1909.3799676037925,2410.6749107250907,2330.1771916159596,2217.063018740144,-3385.4496740123795,1150.5194151244232,1950.3546239367934,2098.776591647016
1543.5323153593636,2204.1768356050525,2020.5090263756647,1832.3413725837872,-2115.1688573800784,1148.2974086150116,1235.3462636912373,1755.6674706900485
794.1880189939693,1509.5098301398084,1187.4308825652552,972.5295102682594,-699.3267759314622,883.9129870272172,460.02017878546394,983.063362237408
1389.3282969209267,1732.3252270276444,1506.9661194410928,1395.0913583768488,1448.3201311935263,1433.6321254831637,999.4350024212035,1334.7816246228103
2449.2688308560864,2441.2135475407486,2420.627107283435,2391.196269201875,1386.4145300470118,2470.3672604113617,1978.0809058665109,2211.6400681379564
2234.5541249604285,1737.086956602403,2006.718111192502,2077.1584413864857,-1173.2551719058683,2312.341818983112,1777.282884664557,1838.914843875751
753.1677839706826,586.7862057554084,935.4748398871525,974.5710450141714,-2796.7828242753094,1128.5319148568942,851.0258561257342,862.428191615385
1359.5305176091824,1385.5897502818743,1569.6048311545073,1471.885212787688,-4586.587105629151,865.2681313278126,1297.276575150412,1586.7338957995253
979.1831625164859,1101.775418379082,1288.6253806109953,1157.624309190237,-6246.553506544675,272.6931209567001,1426.7189619277833,1067.3956175427556
-557.1426982932235,-433.3245984307541,-265.58860830504454,-377.8255137041151,-7025.856676199965,-734.8549643903098,606.3317677249652,-550.2290866511648
-211.72725837305734,-195.349570542091,-148.28839200233506,-216.9569671508625,-6588.086856312453,-592.6843362601521,663.3430463927452,-92.21085068809043
1464.3375554554095,1218.436291196248,1026.9511968398629,855.038444359036,-4889.030151618434,419.8585991193795,1219.4279795113289,1844.2848455882558
621.7837622082061,463.153403857541,319.7204871296062,320.3458417442589,-2736.0749660748043,602.6463108481885,297.66200563931125,657.425433231102
206.18259769808992,164.18252123415095,254.915172477743,314.35184914145066,-422.1530363221791,802.232684972219,-77.03128238321369,2.352647902175704
875.7834668702899,760.2782373119826,872.373679182725,897.5445381881309,581.3468709801746,1203.9301149116209,585.3718421419708,619.3993362646115
877.2760401026926,697.6978246398676,729.3416943361485,712.486441564057,-190.8798398014078,979.071935773685,676.4076869480741,775.0186200617518
-856.7883128730455,-925.5862026209343,-837.3190523290687,-847.0906675507556,-1790.6545946889983,-484.48183885694675,-529.0550901562547,-1096.9699099686122
-11.061909308253234,-136.25038789076098,-165.16967895944435,-178.86754833363193,-3735.294187424368,-314.97032925598523,-26.310516048767568,-12.484493441617815
397.7234079468981,304.221988240045,299.40866245420057,295.76525842874526,-5387.633413824019,-101.66136632875077,324.75207292181676,672.4422465229736
-279.64758207969135,-291.8170435962147,-232.8006461472596,-208.50890578016242,-6156.366589312769,-502.7625504280704,-275.4031228245667,-61.477223057835545
-943.8039206578524,-1123.3709956270532,-1127.5269558367422,-1105.3811182100285,-5652.268350225719,-1218.3553931334336,-962.5138941957148,-788.8059044367365
-699.6408979883572,-891.0425564423322,-968.9407270592083,-1011.7300214218153,-3959.0731990559198,-1025.3067345472818,-497.92592849011817,-642.3099475425843
-917.5602028187113,-1090.8162202708563,-1119.3799373946613,-1183.832334468897,-1776.055590216376,-769.6675347570281,-1119.8433123280502,-1108.8085230177312
-1039.4122045314316,-1254.448380222998,-1242.9584490994475,-1266.1355338896656,228.8052693088557,-454.8207319022931,-1269.337620579643,-1272.3279774760522
-714.9007614231086,-797.0034183343669,-824.4633237074231,-809.6142592118786,1374.7674841369026,-37.274681771514224,-1023.1353406369017,-1021.1227529242187
-981.5711393617148,-975.4351587461151,-1117.3629037527662,-1131.5160108257687,2369.0059503416414,-423.82613671396484,-851.2469421580226,-1129.3667992695337
-2136.774420003465,-2150.614214153129,-2347.4776166193988,-2405.4042914874954,1864.7052928710136,-1756.9748143181278,-1621.4783634688974,-2106.2017903912165
-1918.035832989728,-1852.039507301859,-1994.8358201672345,-1994.5812981126437,330.8077952665162,-1744.9731223412764,-1290.3307974007366,-1783.9804193939435
-642.9899942686843,-500.64816328967754,-545.8538545649026,-546.5978073108345,-1101.7701024922326,-960.4735531179795,-343.1986442534908,-438.9965826325242
-397.7205264806871,-404.8036474833498,-342.0644137741565,-437.5061740840338,-2077.781200415596,-1043.1789078383335,-1063.778649435877,-305.65722732902213
130.1202217086975,58.285051324352025,280.130219441593,158.37080749251982,-1836.4840492284293,-531.2326434605657,-560.6750552504855,135.87622517247655
682.5670237430495,699.9030471692076,899.4244543922505,845.2178737499762,-185.13293838426944,235.69575891034583,629.1097657568171,703.2399811735431
18.365032142040945,-124.90328716289514,-69.18376055531189,-25.357743377237057,1902.4718731228677,91.66739042487279,182.56002533889477,-375.78865228843097
-575.8835220629862,-900.6813810935419,-1084.5592179110154,-966.242577168392,3261.249406061086,-282.73242892106464,-634.0218571607438,-1476.9680828304263
646.8934334733676,401.8857080481612,-245.3809978169229,-101.88688033646395,1719.601540129927,497.5926215723139,-96.72593682799925,-139.88848102512566
368.7028055199844,562.8548224259102,354.2768484668395,213.76162562966783,369.03975254264924,592.1689624446371,54.406838223920204,201.91661930739428
-878.6949602744771,-871.1764778395209,-609.9199422813799,-710.6772026692361,91.5926769291932,-475.1984473033881,-539.07033865423,-497.1557964715503
-785.4668462902355,-895.6259442934788,-651.9556941242081,-666.3511657510353,-1426.214484325585,-880.9380555939097,-504.79112101697683,-283.702698867015
-246.2256137728582,-266.97341695264186,-196.29074386707362,-196.63991529873238,-3024.2328360210786,-769.7521460518456,235.05647630991007,173.64313239931653
-662.3711743976037,-603.2395994223843,-409.38799739085516,-305.0637986661186,-3618.3643767208105,-576.5227285115889,602.4252476010406,47.94693182987612
-735.9780666627557,-597.4673733852069,-350.00221462232366,-247.32834369287048,-3043.435502371369,-428.36567993592143,400.27534112042486,-84.9368033606479
-388.4455825486293,-227.8745240026874,-84.63680862119509,-132.13625396270436,-1418.41810592814,-261.1993953198107,-239.23078186481143,-167.1449085316235
-707.0040521775882,-494.60469107824247,-333.3236563212304,-457.2844611447108,742.7047732403935,-137.94536145109123,-950.4929320253141,-909.761610030404
138.78103193308925,298.01283777992285,372.55301197436347,141.70689784632123,3067.7337841289536,387.27127805738564,-576.6952891243818,331.056368845675
823.7571697218445,1506.3443234112383,1526.586725903553,1369.9578848654983,4921.634286987411,1395.6700270698384,887.3290090463634,1137.443010466246
-453.406358541426,534.9313665049922,659.7181403406357,667.556765495885,4905.760334606839,848.6192840678996,738.2219897090472,-228.41288053361131
264.18809533289095,584.4148435863899,297.7103113401681,402.19603310298044,2278.191160082344,333.9042909386917,471.4219158948217,89.02506779240866
1502.6373990661014,1229.7154973492052,841.1324459986772,906.0858795655568,-197.3461295343625,355.7376494618293,899.1160369862118,1286.703002358703
579.0974264012948,836.2251612903892,588.6407170838484,705.0244316140779,-2513.8285864393492,-57.20018040600553,1342.0752447990708,528.9988492284283
1993.0167465414488,1578.6385041076228,1179.0871075466712,1163.1552700547672,-3086.2354103068496,336.9209740581264,1695.5320700729026,1859.4949936194535
1261.7914959302543,770.2592675809883,752.0204067853192,702.2948085964345,-2663.1728813968584,289.95166024268656,1316.0709474864652,1437.1383792639863
141.38315007999154,-206.51190979503008,6.63690095712991,-7.88682034350677,-1169.1333272800848,11.006092825233281,449.52394689788525,580.7986502548665
312.9558796520596,56.958014313806416,177.0598790713866,196.52061733065602,1031.299777348192,596.0988636660004,622.157294638826,637.9698736781302
592.1124131982415,378.5896107004264,355.3870546497801,307.9357601932679,2811.227944299635,970.1781621706941,1022.9887113616151,675.8422517203871
714.009170476822,610.4824081181014,610.3531489245725,566.1896403170012,2231.3860863821465,1132.5721845184999,873.0323097527307,382.5174234724218
983.6755997039199,1051.2617569039448,1194.6823316023892,1393.0344499716266,1219.5444705591917,1551.1409164269671,754.9177398616848,839.6776097688107
2552.5661495968507,2547.954461098775,2415.3410895992884,2442.983197744971,-1192.5402363247458,1775.6893525580244,1598.5242801958084,2367.6016888221184
1905.56037833158,2037.5485220604332,1793.1196648674058,1684.0177104534832,-3323.353152419064,783.648839078216,1097.0556606580121,1707.7982440953665
1800.9160702645613,2181.2945507956374,1908.490649229841,1804.0595103059122,-4817.776697607115,624.2258691461311,1508.8689597695839,1821.7099540595218
2500.402923428774,2945.189056221971,2813.655419116503,2795.6090803966526,-5155.4447741288695,1539.4284393426933,2476.348794462961,2602.8097089558023
2130.8533388320448,2275.7867976676816,2291.6166677222554,2293.62070605069,-4345.595995161251,1362.3123457309457,2059.100293190952,2173.803519381944
1103.6915824486537,853.9542957948252,1001.2716098066228,999.2756447127272,-2688.4976853057233,714.7868287021878,957.6227573646821,1021.7641647180221
865.5051510204048,607.3634194496481,735.814386690055,738.8152423292431,-482.5353737859041,828.9370865329292,695.4296235591394,704.3414823727
1354.5305965494517,1250.5265934246313,1331.3201822296055,1329.3179229074804,1840.1992372722234,1468.7186680985546,1256.2978978609058,1178.4264447724886
1441.7458135379493,1550.7261709552813,1662.9134975722345,1583.168037193428,4224.1475031812915,1783.5014946437018,1555.4645553782202,1250.7948596833994
1525.424041262032,1545.0005323517717,1616.6104287666658,1546.336292503146,4094.0149192240006,1616.8189257098388,1389.2133604842893,1357.6001705523931
2272.4924750304117,2348.767823230369,2217.5649498854527,2160.690246961016,2051.7075226893703,1644.5729267007036,1968.66431173838,2181.481814223049
2119.6938681837255,2242.3442802316695,2085.0477473547617,2125.2255182345016,233.52806168974894,1402.9985674043228,2003.1861520564544,2220.6519048292103
1034.7837417697847,825.7056696467207,949.5143525413969,1129.0019991036406,-1476.5666601429548,388.3708267659458,1042.6175275808255,1233.7994289701292
1587.5453102228385,1145.5127847946205,1445.9885194791987,1668.2141564985996,-2043.5080636168714,818.5789635784386,1700.0011032267776,1873.0388010380138
2455.842586871464,2528.9690065120794,2445.7621820816676,2506.100094503614,-1245.176149106659,1648.8273887455125,2729.086746090894,2865.153320279207
1711.7495576758556,2088.462773203799,1829.3314243540663,1774.6515777863424,354.621506298643,1515.885002654668,2056.05352937504,2025.7877551794227
1087.9539881920246,1179.1970519755123,1055.2691448294972,1028.8440798927732,2466.7579324403177,1411.6877436587583,1459.0106569229574,1250.4950054066067
788.060220259842,818.919691854222,730.6583885138862,745.2704541324674,4101.124035856141,1290.1993784546557,1639.2768769647082,877.808588983833
225.87486430304125,207.69449506923047,82.105044390486,21.86045300787373,3598.9335390143087,475.6518166105325,721.8592368066711,198.42755885793304
-123.44697872813413,-306.9935890650486,-499.5834560330004,-583.3755231672621,1461.0369168582079,-258.0319398130014,-574.6035369291276,-358.07100642959267
-542.3552352536608,-632.043459762881,-840.3737744162972,-873.7976111880635,-639.5437780301459,-684.0721412050079,-223.09734717925676,-679.8102864922912
-1077.2670515472346,-1177.3590434188081,-1293.6694758595659,-1295.981028201364,-2789.7702999189232,-1277.9084152555897,-626.4285737170139,-1171.9927240982652
-809.340018741208,-1240.7622058595916,-1177.904695409503,-1253.9700333733454,-4308.470218117536,-1400.49383899458,-1405.0463416744751,-456.87537071565384
-1689.4896682276685,-1803.1992590502687,-1465.5998472693718,-1486.3609796625642,-4919.479637871795,-1418.637266029671,-1653.4378767350318,-1417.9853228279244
-1455.6089702768531,-1566.6125924663102,-1422.526430072945,-1530.881938693563,-4222.758100044564,-1479.5322617408474,-1220.4092340017887,-1319.3855197875382
-814.4772327565261,-994.566356393123,-1255.1143350408893,-1360.7974060225733,-2434.84257294481,-1101.4239508296596,-934.6390069097597,-1061.9044489726184
-441.53132503951747,-858.7439471257858,-1292.1118901116424,-1350.2802131897079,-181.6225162437513,-698.7683656119125,-1105.230399020602,-1150.9524602800593
426.51582700767176,195.34018046746496,-238.30395939491245,-425.7007966919591,2079.4152308745506,167.89934528292633,-524.11175939641,-322.3240420409311
265.34230411654244,236.98203418520825,386.2313640657303,203.99575539000944,3031.3592646244797,721.1065066571282,274.6720092384421,380.4932645266508
-1300.4059348883438,-1202.9831847228288,-691.8086607057594,-722.3757110520619,2633.562127962572,29.747546816559407,-330.1537946512508,-717.4481796301443
-2984.942989123969,-2895.1085153251643,-2323.3361871234847,-2201.190954617243,1726.8634576641343,-1328.1732242953904,-1459.531176121578,-2820.333776431409
-625.6001193129414,-731.7145112180842,-470.55892994867827,-496.7152397661539,-410.27286862583605,-558.2469180663502,-504.36152171674985,-166.94899267665278
-885.8515937937827,-425.08018391341466,-124.68877050581796,-210.49336148909788,-1995.7140766431949,-660.4182176292588,-173.23262496182724,-462.96986283288425
-514.4525053199995,51.09461131411172,178.14317542167737,-16.77945696579991,-2258.349541070038,-477.84236223419794,-186.10387934761638,265.6498564467911
-1076.4543364071305,-339.9976295870729,-235.6759496899449,-440.3432447354444,-1461.662577527677,-677.2134869224928,-747.171725354945,-52.02108555194718
-487.5410257468493,-3.917330498166848,34.95449732765701,-137.52791540018825,367.7738928714316,-275.2214406565372,-326.79789923608223,-46.71111374231805
-305.0508330472112,-794.4091268527682,-1007.98843933227,-1166.4312320789277,2559.577383075466,-637.3543231248304,-889.9750724670557,-728.2761841511619
-1080.6974974516443,-1686.6148613694668,-1764.2791991113027,-1866.9018031416572,4460.522800472181,-794.8550237785125,-1083.774501990144,-1684.695758811311
-569.5130295797326,-649.2762476880362,-739.4134129795921,-901.2053456235967,3854.400625449489,-30.26267760424298,-234.63239078840706,-850.7302343481751
186.6895152242614,339.69620017326724,220.21756392793213,22.55491916131814,2484.4861264576575,609.9161320185785,320.09892870686417,273.08432014053506
-1122.3707581555736,-966.3349694091053,-1009.3032572040329,-1234.6370264044513,890.8821426749964,-730.7042270669526,-1325.7415153513557,-1134.2101229801565
-598.9631861789494,-942.3388363721401,-1145.5337714515485,-1299.6753565102028,-1158.277929320684,-1253.470889598433,-1627.463902852217,-941.6886950181101
1008.4717494202989,447.7682753321921,250.5428856084924,511.86690081796826,-1922.3456906083138,-180.69233054856167,-377.3993488064459,249.65068856633107
857.6092683692898,617.4218651644976,710.5235813003757,923.3579805386886,-2514.407155036163,178.31512602678552,136.35789111649038,675.743453640388
691.7417623155475,474.9899165128181,613.3644375263789,758.0755558996236,-1778.9191268726418,273.8944716354974,250.1436774544505,696.432604257874
1126.0310369618105,854.812182600097,831.8241913876125,941.7353916656693,41.53901213545305,751.6725085047569,862.647675637147,962.2217342549841
1055.1784896497616,487.5948643209381,592.3499988919216,754.4067694347559,2165.605050907988,1090.8839220440273,937.99079890169,702.9902896164635
-378.9459373501486,-1045.6519283547798,-996.3806900663849,-745.6208231756732,4350.135032741858,259.64108101396914,-27.868486023929563,-592.357278818813
219.55473629940934,278.7573107462765,33.64381873403636,250.93324553990533,5349.662028168229,841.182693985561,156.72669850100874,27.417516281605458
763.4665295990499,1055.5654363992808,1004.3827782231251,1038.8811929007306,4493.737779608482,1295.4701631832577,523.5893927105221,515.7112439574753
701.8629583684815,785.780584676073,892.4237072622532,985.5212501995438,3342.120533714673,825.8059161972151,-21.986427177410405,352.98211812719137
605.7549830579364,766.9026834430547,871.8809583660218,958.4141841343726,1366.328352475708,198.58766772712625,-254.11904054061415,407.5926989197337
1640.6974019240242,2034.102929528458,1970.9498222265156,1973.204097825752,-338.899419776797,811.414596927907,1009.5078219293664,1665.081108796494
2357.137811377179,2621.4769400295445,2469.0012385344207,2627.7497139144143,-831.2233831157791,1399.4688692357522,2012.0153433868604,2444.1714461241354
2025.369570052524,2196.341134034501,1653.0512856715159,1996.2229089789616,-308.64233772386797,1302.9787898401737,1849.8827507997012,1510.7465808358638
2305.7628588718544,2429.80757804132,1364.571086498865,1472.3260863753403,1406.907285621839,1111.3937669125444,1496.3700789235618,1062.6619190466008
3747.7449605881084,3577.9334819399137,2514.3848350320623,2463.9597079125633,3610.14564836082,2055.444727855125,1840.8856975759118,2831.428123306423
2177.1313794821654,2165.88867679127,2033.0984444014339,2053.766815466788,5104.766684633963,2117.3354896916553,1561.1976481884267,2063.0516157805196
1634.1576124735984,2076.5603919805326,2484.9045081885306,2571.236709616318,3712.067615240132,2532.726705835281,2002.0034103522958,2194.6753548528795
2446.338365751526,3047.4627624073437,3137.2419459468147,3166.2119275098485,1801.7452471840552,2773.058006620304,2449.0200015045903,2839.8588547608924
1579.6900176485506,2075.3686990364986,1925.337191188035,1979.0474051377641,377.8976880477021,1679.0710710730418,1755.8100275549987,1901.9617888798166
1198.9606374256,1304.7497184514941,1123.7581379993717,1269.8406950356184,-1432.7883015729967,841.1535144217778,1693.9721080257368,1447.4393010114436
1603.157344170304,1488.9728153408687,1347.9927681509398,1552.9724051344456,-2938.056733112433,852.8316065724866,2184.7865266712033,1935.8103395752842
818.5493772587615,623.3368389477,633.7669083800793,827.493977152164,-3310.426445419198,414.84908646158146,1692.6052446157519,1418.2731721714335
-224.3175937947526,-492.0756378454207,-345.1399286744527,-103.77975682006218,-2771.3198720463115,-124.06450551696253,868.5590317645256,364.67175058621433
216.7064025825348,-154.04570225675707,-140.61382453670012,30.450685228712246,-1075.2355296464339,19.264772398386413,78.58347057216452,221.82924964259655
-18.91506867712087,-461.1131774113019,-438.7936007530989,-287.7410813220704,1093.7064958563205,38.08455809567022,-766.2561326264622,-342.7908014734094
-536.171120685005,-667.5672368703454,-591.5565923329596,-408.5535292300556,3166.3230447707174,339.89711407199866,-1196.0911923038257,-790.2312245800676
-685.3337143024655,-518.8400709484013,-386.4840181718391,-206.62096218641818,5061.474493022859,487.29834340675006,-1122.8061100232117,-466.2838095534389
-1760.6492674534747,-1546.3519425115046,-1476.6307535468331,-1291.9130531291084,6019.6617331466405,-549.5061761994184,-1596.2638180014874,-1458.2376089126847
-2572.037730240201,-2508.6128808650938,-2659.636253730645,-2500.9972686619403,4704.969101738614,-1898.8145364146585,-2118.593169456526,-2884.594175713606
-2332.6290472317414,-2831.8351538582283,-2884.2195188767946,-2695.6712471027786,2589.053983422971,-2296.6340077893037,-1975.7303652028077,-3074.8717423128037
175.14879971701157,-206.29064981943156,-414.85518577277617,-362.06512301316616,533.2449682468578,-745.0781735793717,-365.3755317833984,614.8565560802235
318.59779918480854,307.3918841082814,63.24955291747392,158.5743065614588,44.430032638854755,-270.88632348165265,-519.5952388921742,423.59432599161664
-815.8402062010937,-836.9446001336655,-1161.3008953879798,-1076.5419084514288,651.2445543228096,-1103.5683731836252,-1766.4135101313914,-1104.2674316542543
-318.27712522238653,-494.7607842216639,-1068.296271101357,-1036.9021818576366,2367.759890740628,-994.9755070026549,-1883.945456163783,-919.9081051074936
-14.232628248817491,-686.0512269194733,-958.9275918334988,-897.8241089756157,4547.036310438387,-549.1245854072204,-1236.143359039941,-616.0827541062317
-1057.8643726301598,-1386.539830421607,-1178.2134235369049,-1150.3893039596696,6480.392238214648,-430.0483454014975,-1937.1739533749715,-1434.640005786081
-922.6425368450691,-1072.8136071447843,-778.0676344803596,-697.583793937094,6765.777912779231,0.3016919455767493,-1191.3454152626473,-1422.663624407418
-691.5711392910343,-705.227558302593,-581.7953640245778,-465.92836801218436,4808.416118958121,-117.33058227854599,-312.6204543550075,-1255.2504683694478
-49.24394792554449,-326.98486753207726,-298.0313888740093,-263.6364736473297,4483.225351642148,-287.0602113259465,104.03477407446735,-152.82701581140282
-524.4414689386795,-1038.694284967085,-869.3637635848991,-726.5256370605821,2852.1802623851254,-893.3517346054468,-212.62400246969992,-534.6669622741465
-431.438652242894,-782.9714654970885,-811.0845641100095,-525.5921017989258,1112.7240539007034,-886.7593910441992,-843.306745189162,-477.48738032069923
-856.3925813048736,-644.4867787190124,-804.0104251329176,-592.0806600235956,760.8379720186058,-931.0484481221429,-1480.0077032633744,-853.3063097617105
-1336.503538602714,-906.6139665283827,-911.6206933554204,-859.5204248592836,1296.3750106774678,-986.0258188050339,-1369.0571134158167,-1240.7278798444586
-1199.536082754641,-996.6345368794518,-1061.4220197555478,-1001.6731288873289,3042.7430847198702,-879.1660158316045,-1474.1248296855392,-1245.9155754902076
-1194.0166408419918,-1113.0069986517083,-1160.4418984146005,-1074.1518188108494,5160.970172821646,-562.6365097602502,-1371.1860395932395,-1241.1025332713753
-1232.3935996702985,-1656.3067149797716,-1729.3630979327054,-1643.613490955695,6662.824258557826,-813.313704739583,-1922.83736909143,-1830.452648683473
-625.5568269192299,-1017.9055361111068,-1124.3978229362738,-963.4233432188448,5632.1980406658695,-211.09551221529546,-1548.9305145589783,-1256.7540702866845
48.257023119807855,-139.26996113172845,-188.27376095229602,-17.341991489103748,4862.2284467542195,267.7266835930277,-688.8999922515704,-341.73199410636244
-430.5421625218278,-619.8851362981986,-643.6602678294398,-548.5642701580946,2494.117696623507,-429.76434972027346,-1027.5077828975764,-721.392285009737
8.783004638817147,-42.803090927286576,-294.7121465922337,-360.7075591416178,-39.59361028035346,-676.2894666901702,-640.2681855971414,-296.1952046324591
998.6179603765668,1422.8611435396442,548.4904569098176,242.6631557716173,-2425.84804913502,-509.56405972344146,105.41204466658655,420.4143320605426
563.7099135285862,1403.9804533013466,432.40898042071694,192.29681973131846,-3014.755896859817,-426.6228256501099,-128.51527162315233,277.22284839447957
-620.1130743313915,505.9799263295845,101.73078287862018,150.22061401360952,-2163.4877384668653,-77.04060566160842,-221.41602284423425,-319.64410088045406
-981.0825605090795,42.257720346382484,189.81498272166164,405.47496790020523,-388.4706014342082,344.12042588749773,-51.558341119754004,-337.579145769319
172.45763484394047,599.242203310534,834.5965356450101,1088.780437790363,1825.0164158535044,1083.6348597240521,579.7820757526824,541.7791098469143
690.7459796023959,-187.05255352536005,-29.931257292108057,276.4914421895719,4144.263073810638,843.5803987342933,3.948344273253497,256.2721799294736
-108.08470538511392,-1061.1314236469152,-899.0130286860194,-644.3530479793153,6331.352778033848,140.48871694472473,-576.2538146648621,-283.6420748954515
-487.21432887590527,-973.7384681307467,-886.4037843150236,-605.4265649779991,4932.964497903915,-55.77731450849569,-213.77174333248422,-266.9122128265117
-462.2317158504302,-892.8744540447169,-866.8957310907786,-530.8569510378366,1611.4046534927766,-177.04597687458045,-98.78989911194913,-301.1278779087852
-955.776684692848,-1411.634385603229,-1360.8967021621347,-1009.0190857472262,-655.5982606611797,-722.220715726422,-706.2606172352907,-797.6756187914089
-1026.5491715833286,-1419.739477537939,-1455.050229758107,-1063.5081660118512,-2717.002748099694,-1234.0748916026005,-982.9538708833006,-827.5699616493955
-1348.0887634585279,-1610.2203067470455,-1634.344366569518,-1091.737038341489,-3084.775927052775,-1547.336650415601,-1145.2676857025363,-1309.854735060868
-1647.6774107272413,-1877.2641501328385,-2019.8643921242883,-1408.8812141482285,-2336.743482920574,-1653.281637921239,-1332.4836541841069,-1639.5889610577701
-1616.4226557437742,-1803.699778310879,-2028.1469289724191,-1653.2609668729842,-760.0148002382048,-1194.3354094629617,-889.5029052304799,-1035.1855979980105
-1370.0405269873995,-1187.3033794765518,-1055.4595785814763,-1033.8193621173268,1334.181487043752,-215.90508097545762,-420.38783679426706,-813.378347131114
-960.7179743447393,-716.3227145617009,-611.2233174540324,-682.4273869312349,3101.246921159269,271.9190612126804,-474.57607841108256,-725.5434046184996
-617.759197257102,-1076.6899340909508,-1176.606794745091,-1266.305377770488,2728.930851931189,-393.6984535036936,-1516.321537876951,-1423.7912358118301
-118.44612673443567,-548.5837738364385,-410.62019137482275,-580.5032621603682,-413.3439696638234,-146.9997024053273,-1369.2560642062217,-1203.5369619018284
-537.3859316058179,-809.3179188261943,-598.4501978801363,-715.4320598057227,-1963.8755930137413,-547.8169270312558,-797.4491902403934,-721.4894730132946
-1360.4235512411542,-1682.4894422711986,-1530.760889876361,-1476.5455574563723,-3780.8280210607045,-1375.7736578843612,-777.5011919124499,-1129.6735952572772
-1611.0883872429736,-1869.331150104902,-1831.1990353375786,-1637.7617422293297,-5498.6753021675395,-1718.0541174907785,-374.8809496654867,-1173.4383256292167
-1035.7727754036741,-1204.6736330751955,-1183.7271523872478,-858.9179869121572,-5932.762195456176,-900.826522220148,537.6079262475105,-529.0894083648818
-1251.5869304733724,-1579.9256269060916,-1609.9505907098028,-1065.8711530646024,-5063.216961440121,-927.0839788928633,-306.11938939715765,-976.3600612005248
-2379.1802580127614,-2936.7358321815173,-3014.422439474656,-2716.9867078185107,-3418.570521181915,-2077.644192504742,-1533.3404271149739,-2172.4674259600524
-2699.2260346930098,-3316.092003413727,-3239.7742790347947,-3168.4969222204236,-1276.8193332036462,-2256.029528707013,-2540.541916444883,-2551.6263488484674
-1431.2494808121974,-2470.9112814080945,-2434.9463322479132,-2484.736467358778,532.5188838298927,-1121.4188023857423,-2379.0862528826146,-1397.220368731476
-1595.7399782450557,-2474.375214893069,-2254.2148894460333,-2100.3320664774274,676.7199988982757,-655.8354024545915,-2822.7441293888005,-1861.9813726893772
-346.63764009496117,-343.5223397555892,-531.4632480640103,-380.53799468495345,-206.7565491007408,291.3098496736784,-890.0798324216557,-831.5192616080676
-84.2839549053042,359.42760974200064,61.01465005187492,-142.89366396172773,-2306.8596379887604,-412.3100350772129,-594.4160925013348,-454.4792833251777
-259.20472555016386,85.03139592310981,36.70773703758823,-108.10501925682183,-4335.990454821556,-684.8631167435979,-996.4182933228076,-718.793150103982
-1764.8460205741249,-1336.0384955277405,-1209.607520776015,-1198.9986743283625,-5787.187206431219,-1466.105598012511,-1479.6394533475031,-2280.3710467205383
-315.3109100546535,-405.56698372531173,-551.0760803375051,-784.7663799167676,-6247.379308378688,-1103.0343469582913,-932.0628174718659,-225.4984800571401
-701.1176922990835,-763.8930059914674,-854.6598091274973,-1110.8112373715012,-5596.171303066156,-1051.2663364604996,-1288.0879081227795,-571.9930958282239
-1966.7362764770514,-1742.0203403355445,-1738.5130103383963,-1901.3481236464868,-3817.5969531407245,-1377.635658050087,-1979.821404403192,-2067.7001258168602
-969.5117676089976,-638.5415848941811,-888.2607402147623,-1015.1855601079078,-1569.6721132880848,-465.84415410571637,-1059.2737146334548,-1327.0352450469727
-4.45187261011597,-218.84790828959012,-695.2857636944755,-844.3435325300416,1345.0334886202181,145.16332146920467,-248.16623073556548,-364.72030116897076
-916.5584429753108,-1285.1230544448372,-1370.794973594835,-1417.2385764277096,3794.885929660508,-126.89407152155945,-846.7264631155922,-1154.9461404487374
-1186.9499888492937,-1176.3898756190101,-1170.8101694872457,-1234.906475154301,1591.9624436880913,-155.00844083476295,-480.55667760549113,-916.4385908653785
-1056.9006943335007,-1012.5132074000794,-1127.5895046162186,-1225.1778850816627,-930.1167836213208,-561.7566257817507,381.75376297287585,-615.6254656131605
-1337.3787348887017,-1552.4549987050414,-1563.1362147056716,-1633.1978809159154,-2887.124539434146,-1376.6668364210818,267.7133758061682,-927.7766251206522
-714.9312092447108,-721.3117542727123,-460.77791108605743,-604.1690138356644,-4438.111394848005,-973.2841990262568,-712.888017279809,-771.4383923751957
216.63430505606084,135.52863071663887,660.5944207773355,514.1140028865557,-4744.263955004848,-639.2183079909628,-779.2004809341379,9.953958319343656
-365.89678995465147,-493.3472794202462,271.6655759614805,317.5013194654384,-3903.0971933015535,-1278.1945258454325,-1763.2131179628486,-741.747045050939
-1304.648536054745,-1549.9280259049774,-920.2966045229987,-538.8033462411549,-2225.8424789248165,-1462.5840437606057,-2597.5134300058635,-1812.7218393396906
-1421.0853578738534,-1774.4840492739604,-1368.1073745504327,-1046.8219962853582,-103.5244415564739,-1207.1966077503348,-2104.740688967315,-1824.29575556716
-949.6374089003475,-1153.2860496770518,-1192.0642202762392,-1224.685696024946,1492.1130779839223,-657.3389447064183,-1513.3739840241324,-1285.5258343378664
-1454.0858397117627,-1014.4758055013153,-989.2115362663681,-908.9826060674932,1240.52823457856,-403.00772741190303,-1845.8206071811874,-1771.920516522674
-3038.9703250614366,-1819.5722368599818,-1634.9672809834374,-1602.093647826703,-531.6987071290059,-921.8455325502146,-2100.4230613336767,-3135.503215523968
-3556.2506999513025,-1974.6522915562018,-1295.7601344236464,-1577.1059241915427,-2701.541042348181,-1326.7812058381423,-1760.294099202234,-2596.495516761832
-3510.051018410544,-2463.708566359237,-1235.8068093980837,-1421.6847429319387,-4553.74776812768,-1627.4999684144204,-1647.5878667494326,-2225.3470447194777
-3100.283906604862,-3475.0513036802877,-2000.6392019828127,-1864.361335817688,-6065.386434710381,-2222.405028164063,-2234.392096563308,-2740.7455187430533
-1258.5899484642432,-2486.3228903466006,-887.5655001187843,-498.936668876544,-6302.531240756496,-1980.202043747664,-1859.5306114798004,-1612.0705892116457
-1112.1420031187736,-1431.0161298722887,-388.55644359302096,-10.336780056444695,-5364.876626822697,-1785.3720240742368,-1281.6620997362625,-1338.8000817161956
-2553.6255220309686,-2156.7446749968294,-1256.3885775343806,-913.4345490489868,-3576.7854158278824,-2009.450137724023,-2154.865871032045,-2859.610220366849
-1974.4002387881628,-2128.282817556348,-1792.8092189592862,-1492.8749229526002,-1457.968065950121,-1664.9067030616498,-1773.5243276310503,-2110.994542474742
-665.1078524866462,-954.597510514046,-938.229277518134,-544.4742735532636,78.36604813446684,-173.1322930044771,-539.2584712176103,-783.8998037586207
-339.95036331746815,-951.6089646803885,-1277.2690428435162,-1362.4833670019798,-861.1745625756266,-110.24199205804325,-740.2387033654013,-848.7706118441492
-927.9669935108905,-1281.5930363722655,-1084.848139070702,-1336.0057096455275,-2080.9316903220097,-433.533681095294,-545.2003988675715,-1091.6744085766622
-1093.6159919411148,-1116.0605637978224,-759.055307122464,-921.9122117326042,-2996.9787353850934,-961.1520655296627,-928.5702815990735,-972.1905759071597
631.8347815062734,301.49852607622597,129.92121709819185,-12.97512078811269,-4903.159592484224,-569.3438732376817,186.76011441342416,706.6437160493733
318.8481192815743,-105.11841737728537,-338.42372660261026,-489.39684898642736,-6624.942608736943,-750.1983057262623,360.04239978642727,642.4055254698906
-122.76788826053235,-116.42241011184524,-186.77376347306563,-349.76053727962426,-7162.627411545709,-597.9629539200032,224.20681200921535,137.95395687940618
417.30678600044484,751.5821599870469,503.23206718192523,234.60126253157796,-6225.56672946752,-109.7395534902098,936.5602357353273,186.93327704787953
2609.7967701308226,2531.268702307767,1836.8803159994932,1345.636753861836,-4381.244254177165,940.6499813241171,1475.9808673228326,2627.0926727982805
1092.166700397007,1064.9707544795383,640.0986645540397,194.7973547380243,-2120.8171686820497,251.90353817958385,-157.16221479977685,882.0683234921307
698.540891083343,655.5654244274556,643.0673755396201,363.0447664528547,984.7518248117885,998.9736457987383,726.050395977174,358.17186686457717
451.92666513932636,59.319614557862224,112.69316465505835,-220.40326727952197,2806.8402060099015,535.1541489108713,1204.9840120282097,703.8355473862102
-0.49165428115520626,-456.43287189157854,-242.8978633278457,-550.9799519871667,2702.531776167614,6.452495727724454,585.3592869861823,454.19737813593383
564.735790538245,561.2379335980586,681.7235962446721,436.3801512435675,15.99134118292568,368.2753762093489,701.3172002284191,767.3597951057673
1445.4205733466806,1833.7138625403313,1646.4094271925787,1321.8563874856409,-2017.720123217725,553.3797724802134,-33.78007000791695,1073.5762133529643
1289.8275718909645,1606.9048399713356,1460.648336770646,1166.0404523405741,-3555.211960767603,180.0756736014664,-404.4033236530886,1065.8550241927296
859.0764496602278,1121.3336883339507,1079.6675540039578,934.441467917175,-4098.168096266065,342.4340150517237,525.2169878115892,1002.35742185251
378.18953363494074,829.2059189497959,843.6253957994413,831.8924050737696,-3345.7819115946695,602.4656458905811,829.959710779418,322.19627631342155
1457.4226286553167,1574.6538277307263,1388.6124660959686,1223.435271757924,-1414.826032255849,1065.226259015013,1289.301647816159,1712.8029732876385
903.007210839598,1001.5604644254199,892.4463727726543,696.4039759694497,676.4936727754721,932.9489119301143,349.1544396667887,858.7243808371568
1144.5743390615899,1418.9560062709934,1321.490904268845,1133.6545217646199,2105.7527896238826,1363.7334574127963,646.0277623543589,995.8977014231277
1585.9960896034245,1893.5495108414252,1760.8076352016506,1581.1258387036432,203.4981914525706,1952.3158576706373,1685.702558177938,1662.5460576684272
479.5069432123928,640.5881266264332,532.6025198698771,373.983548779157,-1499.4306638659873,1154.5551235148923,825.8121838885781,623.3644699541837
129.5935068795079,327.54670747864293,186.3439612953589,55.633935741716414,-2815.8734356413806,417.61610069966264,895.4049335077652,489.86725131950516
928.269973561386,1307.4102005446985,1159.1169340868437,1032.2162371099766,-4716.210660867331,604.405156021734,1813.8931998970947,1343.108610105337
1122.826363397231,1367.0083232885372,1129.925768374349,934.0391311393032,-6275.678159499468,131.09466152842288,1331.0132955888039,1596.872465933593
258.4866818366354,730.4189067203988,663.2920499804022,592.2440293150721,-6652.06429255988,119.30783087444433,1055.5155536029488,642.8360350907533
614.7434415673779,917.2426837011881,836.5801396608877,705.1681622587566,-5710.22650986525,367.7777624020455,1218.3720546389304,976.7480346197408
891.0128275397037,982.2750383250459,845.2962263720547,613.0268046790443,-3856.172694447727,640.609635527624,1132.9848202274807,1195.922234618156
1116.7054567478117,1433.685105207769,1416.1915976346208,1279.0826095174998,-1582.087569056952,1427.1137967434806,1190.6849179725978,1101.7040864285445
2178.353520200886,2643.87487389148,2618.5159829990807,2495.225083962985,385.67096143197705,2393.1119495287167,2042.5272190634787,2037.8407125873928
2805.695671020312,3298.2072288554627,3221.170037312444,3064.757845660053,986.3607605534198,2787.835557722854,2640.814143439573,2746.8093027124705
1927.8246532410412,2282.674151250976,2169.23535255923,1885.2068704187113,156.76932732939167,1605.0346949961495,1963.3494528877272,1954.0409216429907
1253.8292152731883,1542.6565006800956,1480.7685206653114,1281.2591123367383,-1695.3966977302625,877.2364828129394,1779.5907301475672,1553.0231687212981
1231.0226494609487,1583.8341748950443,1500.4027256554764,1341.0208339923302,-3581.8178686912142,663.3962625577842,1904.0180743369638,1689.835239519678
904.3143555219503,1250.9285295924383,1067.3359769146118,830.1997772761388,-5062.660023614939,209.65362269145407,1172.3534745415163,1238.6352249841184
57.293246236989944,-122.61627022457469,-307.0526265815097,-565.6314642104007,-5450.631444525658,-803.4809318670523,-51.16902617493906,241.98358033123804
563.3435329708918,421.44497515341936,82.65241779370626,-127.4540061781081,-4399.685316663003,-466.491044030121,421.6671620578636,368.06713038838643
1546.7144438302093,1902.145083212159,1428.9036144728743,1291.8877315599966,-2344.4978317313216,983.8833763227703,1151.7240230015886,1271.914832647908
796.353543138117,1392.793738603803,1422.9442958766522,1114.3284057887286,-68.91560797483544,1074.417139436293,917.224346940835,775.4828209659354
1080.457182836355,1518.6470006847194,1807.7944465130204,1563.914295851213,2047.867116520909,1591.043119194046,1539.506062564993,1216.225494784594
2422.4525002648315,2749.239018144366,2888.042012448015,2653.6643579926804,2996.0213537165546,2420.4407253373993,2767.973776533803,2857.427754798082
2492.0130224387376,2777.874867791499,2764.284486399436,2528.384272570489,805.0796098483406,2235.812412746118,3044.7123816121857,2815.6051545804366
2444.504470538439,2780.41291431209,2677.189522011322,2444.760612089878,-1844.6542723404564,1862.9358531244707,3113.366205984523,2775.041570575486
2254.741131171593,2625.4297529598534,2493.943722959477,2300.8516441874854,-3815.8712074099167,1545.2285552534531,3067.9467233923533,2696.850876586195
2213.7030815971193,2596.025991788105,2452.4042511079315,2269.493423565428,-5240.4196172631055,1500.6596766440516,3114.5239126481483,2746.7492531807875
1417.295780446876,1660.653080524139,1615.6240020677942,1451.8024812325634,-5507.653423606462,855.2581503588954,2023.3824349198003,1848.3132413737767
587.9960054050525,925.5283290266898,966.5119672997644,859.5411657076529,-4505.196688345823,548.8471129367008,1190.2864451437435,989.3983106520091
1776.5673285954072,2267.496981684881,2045.0507051417258,1843.0505813824416,-2445.360836991007,1350.8787551719352,1928.488287912487,1826.5515655922763
2531.0346108737376,3100.632449985924,2800.8268887133177,2601.0888621559516,-123.29092382821545,2217.667883615506,2367.990551105684,2333.4824333986708
906.2359274303587,1189.1555274397601,1035.773706471528,878.1583579749642,1817.3867298540572,1243.7931789120246,593.6859670083804,683.0057024706712
-543.9023015277583,-597.7025529658767,-667.3835917811482,-806.0680889829271,2068.1799676249066,-96.81008651628534,-277.3078599483206,-683.9911312436448
-152.71391434452516,-544.1154660749271,-486.7577930997703,-567.7521341493712,-513.7037290232547,-42.37296748444598,873.817989554318,115.7938236139039
-1291.1776170708338,-1413.963842128584,-1066.8767788423118,-1062.6300179851073,-3027.5782081868965,-707.0185120388295,435.7041405654645,-465.1086344011137
-2765.4334245681357,-2086.965344027163,-1539.6880325476486,-1570.3582479382032,-4915.623825085189,-1460.2100563112563,-924.7595871106951,-1997.3725675893475
-302.79415071598123,741.2623735476835,921.2548894618033,592.7131737523781,-6100.016715757054,-118.25101503788483,-32.75133301720689,824.3127817151371
909.3003874410592,2220.9562012738215,2108.7357930008575,1679.574495554351,-6114.6430446694285,796.6177050392314,1502.6307379632053,2152.959309857769
974.3826424562583,1233.1049059042411,858.4141969066384,443.9033899573592,-5177.168306043022,106.77971123521615,877.154523627386,1236.3115656436523
1359.0518058112532,644.2070501885614,458.27757948782414,218.82129146692068,-3130.070264732625,208.78816813238245,377.21361167227224,770.0084114369115
1911.7761815640824,1449.6290471149846,1757.3170697945488,1578.1758543367687,-709.0091581516172,1550.2620316269542,1476.3904340566326,1421.124748279729
1265.793415309145,1031.8332230998858,1531.9833190351496,1364.9297182399641,1095.7756470304885,1585.4108334829227,1259.7942655364038,1100.2036670411426
1023.6010549191083,941.6333497277237,1196.4117622913154,1068.285501686957,605.4313110969233,1183.7114207195818,1122.3107162474084,874.9983595703461
616.4485995015884,745.3335342413611,827.0547776404937,1011.7507948270904,-15.422429040962015,924.0893952091178,1382.441614407176,446.84560611070447
1428.025662304457,1466.3851464940708,1607.406628888919,1816.8643716307506,-1112.877526278753,1188.4527005826717,1889.1635960182966,1732.0004950825933
1678.2668585097663,1916.7566142079795,2206.4250198340887,2068.657538844278,-2913.22918516802,1071.3531473554967,2261.1248518597913,2097.96821093361
1637.8489030749924,2157.9554092283797,2398.9566692365024,2200.2462695118993,-4199.88230261585,986.887041516522,2580.913129615664,2000.0936468895661
1996.4313510513675,2086.6205795543246,2103.8106870258725,2161.5431854498092,-4324.103348031989,1151.1699728147332,2746.1773224174267,2661.4488539111244
1547.2983381679824,1277.0531921077236,1073.827765156624,1100.2957434705513,-3115.730030994193,710.3219883976581,1734.1021233197207,1953.9490505719332
445.03914196482765,284.14849301715367,274.5915270722471,174.29145389519363,-1170.2652173581882,472.60555932136594,1084.2477977247509,657.7440902753515
684.4905931820922,528.595133204406,574.9226705224573,310.76758147572036,1222.570658179582,907.2706203535035,1739.3771601305507,923.7755416426553
405.06761543751236,425.59745092774756,654.061672672342,442.40140640455866,3221.608601822838,1328.2473637385774,1289.8603444545333,485.348631335386
-822.6205817981627,-1001.5930034793928,-706.7727161245784,-917.107226300297,4111.570755120483,123.68607409800461,-382.9885830144194,-842.5292565389409
-415.73019781832045,-858.7485381301267,-307.58603610381033,-485.70019758514536,3586.386570934221,-205.05843608293435,-567.0042165820232,-501.30745356713305
282.68780286810943,-75.8125011320135,513.7662589666143,375.6455965310324,1599.095969207905,-128.01191610657588,106.44282033813579,344.1861672051564
-350.10042851376784,-73.34390461871953,81.89489673345088,-23.460864295340798,-254.1295636650757,-688.4470471592595,-110.54441479036177,-46.74826134786417
-842.3541817813966,-186.527496158109,-90.07938042793467,-359.2584827550363,-1582.3598104842968,-1141.6973026434334,-580.3736950012917,-465.1401169721248
108.94985812027699,307.093722876436,190.6047821243592,-93.8350745634616,-1642.229551200653,-417.79811320340013,274.58682461911485,501.74487001407397
108.26749126143659,46.9813672788714,-63.79358409005363,-222.8401622850506,-443.67622610760736,-87.2114120064507,589.8711751568771,544.4581219874599
-892.2695092219565,-1017.9681688578003,-1174.902093599634,-1411.7050718794162,1594.7075064777018,-614.0085893230698,-593.1187529232266,-618.3098741957383
-923.5648336106515,-1025.5482350176026,-1143.618191674088,-1404.8565049301978,3926.3626187468035,-243.3150795146248,-519.6228387968185,-692.192787662414
272.4805848646465,305.7132012561233,213.3044773813399,33.45189433860651,6627.207153743293,901.616646147655,620.0614935390458,484.4598173694976
1146.024223714514,1467.143568415977,1252.6988739775334,993.2264960200755,9850.440866154851,1267.801311436211,533.4377790167837,807.4013020122293
909.566313395926,1313.4081409196078,735.452855990512,414.80298899722584,9783.757582642764,384.6099304678719,99.44934673007447,431.5091018779058
-176.73592428153825,351.1786425956125,-213.18789919083065,-359.3711443865541,7538.338339921771,-516.9741015098243,475.6427483778316,-572.0493551369054
855.1327353085508,992.9558515044955,594.6137679475396,444.361803876438,5675.824319129839,-78.10474662262641,1307.042095039964,732.4466744646834
-463.09877758351104,-896.347588715933,-717.9985389843532,-846.3751514677806,4684.277001394468,-1033.6119814569374,522.2951692935276,-171.3160920644441
-1428.1572908653034,-1842.7424992551805,-1211.9355066304197,-1252.78049529304,5241.095094766133,-1329.189149299993,621.7009918070435,-741.4486370525246
-205.0263708270977,-338.88860318909246,45.728322357337674,-25.763736358592723,6530.11462279594,-223.31162026638412,1429.2578180182682,326.8539325571619
