855.791415370449,860.6062887934257,694.797200503346,1024.8851843910825,-4758.380901847561,129.189134853979,433.6426528884508,523.4056502736397
235.3634598793809,207.2515244897703,45.471590753388796,383.46074119538935,-6428.236934679941,-560.4559736349963,-145.26330187819212,33.65560073439747
237.87667161629815,214.9251568399534,74.0959111241441,414.9523765575393,-7035.937513976036,-530.0301085210738,-173.26264698081994,69.33201941217521
705.9116879360902,724.9723973023067,553.1254568688906,892.843825689142,-6397.7341598685525,-6.345003077037745,341.20975059964314,487.5824332555627
782.2364588678438,728.4064014479525,569.5982570995784,920.1480552082035,-4702.860202114094,460.2290482102471,418.82200374237556,442.65994610325515
855.0926278002839,686.9598924924712,557.0587590450082,880.491172719604,-2645.77370594869,971.730394345107,430.15485907690015,386.0564542912241
1235.5246647182444,1086.3886653216678,888.517273944838,1167.0585042159473,-1025.2406447521935,1476.040413305961,778.3581481950814,653.789628406302
1268.6575215111097,1147.3710880247154,927.811101122621,1130.8394343145073,-1669.7740174096543,1540.5634168034903,829.3075023012229,723.4628533542295
1080.2780183846953,990.6541831492113,783.4349798306157,976.2198056973139,-2110.8964974889604,1105.2512578092787,699.504531693789,625.2257611204923
84.61841009232103,-151.98055272333386,-308.058420940808,-112.49362982558159,-3675.7172209518394,-13.179589015203419,-349.5947126187766,-232.00953737599775
-24.57030803318321,-176.94726470632577,-323.0757085140249,-74.90497921389488,-5486.931587733168,-516.5155267998748,-412.2014953778903,-225.57204288681578
-278.6177374003646,-364.2469605914912,-507.4663900032856,-274.8062345582621,-7047.553076658551,-955.8897547215865,-608.993233159239,-351.75823774125365
873.5132324885972,1015.7062963335766,808.5875044936738,1060.724596053571,-7364.276530096387,-202.25137256651442,534.2415281326998,757.965538901627
804.2424746303004,798.0084244411091,598.1681344627004,846.7322280899698,-6911.42775966812,34.276404072380046,445.1647056433817,653.5312463704859
369.55474174453775,200.87020238267633,-4.696443654979703,314.0852483419694,-5242.245484948682,148.701494694521,31.666588480820792,117.11009726409793
201.75998960583638,-81.50468101426668,-260.86205162021906,59.910421442818915,-3140.9088474312302,474.74292755842043,-171.89278403725757,-155.76837172624982
540.4282038290912,318.7498531108131,126.55975412428415,454.29484485089415,-1171.3612643102242,996.1219677993104,160.1440259414676,62.52447385028427
1383.384418172178,1347.5152011822538,1167.4944367821436,1459.283236715588,342.2434733836708,1612.9253936944906,998.5040853724172,881.5586039242407
2097.4488623074885,2213.3282676070794,2001.538435048843,2273.5559506318477,-722.5616043919581,1849.049132951398,1725.9448140504292,1642.6284885378964
2122.1924656217197,2225.383654010806,2066.757515162266,2333.0837768686106,-2652.9570721492346,1478.595004491718,1781.9245236387587,1815.7636252739849
2073.0126148783693,2231.3820594064346,2078.7338404163274,2357.348086778755,-4467.5869421995885,1126.4110017528456,1848.5189507105551,1909.0615534039734
1526.703792260003,1667.1345420643047,1499.4925404105015,1738.4806954239066,-6071.477278078397,496.3130870892692,1337.5097697883793,1515.3035957936008
896.0921686302572,955.8938442303988,801.2643106501655,989.9089856044993,-6551.819606987789,42.61989130935581,689.1426897575147,954.5441791838384
-281.8374632131381,-483.5898090745359,-580.4293354094552,-377.01633939183375,-6045.244486451455,-529.849348187834,-448.6128500696341,-267.6137933175687
-400.69335886308545,-659.0003997323838,-773.1769781922922,-560.0725408409417,-4397.437477151136,-309.21342083626223,-561.4397837728193,-522.132832203446
-295.50602948552114,-632.9414470783704,-751.3872288238945,-587.4672408842052,-2233.6053114400565,126.36111200660162,-549.9480983090871,-536.8059368865797
-268.7335461624025,-602.0617080290285,-721.7593180863641,-567.8378880129203,0.4106237655505538,365.8148010816858,-533.5443100639386,-615.1869309247213
-1164.2315655944003,-1590.1743568814782,-1672.2381242158262,-1553.174291157553,2458.685034211725,-271.48146678356716,-1454.29911949303,-1458.6715327725324
-1640.4205805568017,-2068.679825217743,-2089.420603696437,-1959.1401378471128,1649.7779524045764,-835.0054033805081,-1906.7401686005614,-1853.2668198595811
-1494.571482308298,-1805.508423984118,-1790.2320492612735,-1597.9648866408006,59.408252120934776,-1111.8889145802095,-1715.3607655948153,-1623.344508694754
-1075.4974621639158,-1218.0098682987427,-1197.8448208021555,-984.8508552679777,-1679.501896854039,-1179.6897425015586,-1237.0854521077254,-1063.902333223844
-1022.904923034781,-1050.8816852626496,-1055.764662106657,-860.0546703022865,-3244.0341147754953,-1450.4268224613443,-1088.7783220262972,-912.6924901745533
-100.37617894039249,32.31804524040672,-88.17104310531431,45.50412504319502,-3893.6102317917102,-829.2650115040096,-164.84009598157195,-18.76635020142203
-481.54780199352354,-522.1428802296869,-651.845977067514,-602.7450039108498,-3160.4491629625118,-968.6166294675377,-548.5985575503255,-444.3113678883983
-337.9733852575391,-485.97599903563787,-584.9606278046122,-513.2392555123479,-1420.0588213246956,-561.808749124586,-466.40998134340555,-468.44401471379933
-462.45852663773985,-733.1457370662401,-776.6826342483832,-651.5795900802696,610.4844660035451,-110.69586475787446,-626.9747852692053,-687.8113224862159
74.75925516884854,-87.56763146059257,-151.76604533232785,-4.518644647361725,2538.591405325453,622.6954902931852,-136.57620719021463,-259.83437068726425
1489.8440701758736,1652.5161387635526,1528.9077250792147,1632.367518987323,3901.359452193661,1564.8232714340202,1342.6350074173488,1095.5403332376227
2168.351217866604,2398.788253439572,2292.9008463764717,2381.7564349014756,3956.6726552266773,1848.101039523156,2017.0798831146426,1833.3387453000005
1688.2355001888063,1861.4045964683173,1783.0958473645978,1882.360453653735,3090.53293137945,1069.933823272423,1536.9147825755504,1504.8516031429663
1596.9145880864526,1841.770371281953,1742.0210320272527,1836.676392548914,1361.546338935499,578.7541277963865,1515.325599329335,1534.3035461363743
1304.7987278457804,1560.0833009634844,1477.9054899288985,1562.996176397628,-265.8958816615923,193.32867822109438,1247.6456040224775,1370.1789571485806
1368.4003232423129,1621.088998880241,1478.616973156768,1597.0681845995714,-896.244748070545,350.6196466389101,1298.6459097318639,1448.3240973449938
1485.4348820980922,1689.688061331679,1521.1929565392402,1688.7456725277734,-192.8234202031308,659.4465500297629,1455.9920970298663,1522.989553721287
1094.3300205584383,1130.8268171820528,1018.2148640695268,1173.7525304117735,1570.8474876842083,855.6864301816076,1038.1562272976207,1056.8843838706944
1372.5801309868766,1411.8389684011818,1319.8697141120829,1490.3830707891648,3591.6288560573157,1508.2599480925328,1282.864653926601,1177.8638295669098
1131.712393629914,1083.9977622450606,1021.5137609537451,1169.0279743984793,5152.159348710862,1727.0955580996178,1051.5306851668229,886.3785932681458
-45.69923707822818,-223.70470646100512,-259.87877885060516,-123.25719426912474,6560.362960422499,914.795887615961,-134.35054779947313,-225.69683736951083
-940.6008815538662,-1221.165732413414,-1258.1100744913183,-1141.2847450335466,6481.390901163453,-122.69274735824911,-1033.6812445433607,-1016.7935968909369
-996.5150010382786,-1210.5260495792027,-1297.0824162825302,-1177.0013394955677,4635.46586935145,-762.9103835103615,-1107.952856651007,-986.4998399565466
-599.5011434496118,-645.6947616365396,-713.7653311627782,-612.3800381284018,2910.758637818115,-919.6246490683661,-699.2754355799825,-491.85559541536713
-521.9776711735103,-470.1888314049538,-536.8361839401623,-451.0389305937206,1359.343499205046,-1175.043852551451,-599.1959307410252,-343.2318833120662
-1429.845990732505,-1557.8178431677188,-1588.1604727004578,-1521.841132445381,741.7428049362206,-1747.8613434200615,-1495.615022941065,-1194.4013994642446
-1304.2563018985275,-1446.3795894003088,-1473.5415756253824,-1384.709645763829,1457.832466091466,-1445.827861148604,-1360.6415825226413,-1162.9952019723478
-1142.5694966712472,-1302.7431098705692,-1326.7443438473201,-1258.4062018373152,3350.72592744758,-941.3284595345631,-1183.648565788315,-1149.7296605940282
-559.2229380630415,-721.3838702742341,-754.2065990906312,-659.381040966291,5447.086455037766,-60.18197051569405,-640.916312638522,-709.8873039184709
-189.86975310056368,-320.1120932496651,-354.72295480681623,-285.41306552262176,6919.2363106079865,499.43793158800145,-299.9606001246739,-418.34298375129947
719.4666180292297,809.3510930638822,729.1010674224599,781.03008355786,6466.184338921899,1147.264736876852,593.1185623110277,437.59666554068826
943.2428588045841,1062.4703621164062,1007.6447075819124,1080.1826775634036,5924.258386535192,1108.1788812895684,821.6736790908526,725.9411414422393
1422.8097697774356,1631.0086461591873,1578.520120207144,1640.6350763857772,4220.3877092776165,933.7639831026154,1329.9143464883437,1301.5715915612964
901.5075107224657,1031.6434500498872,984.4680445785561,1015.2910067399971,2394.6059994759053,140.3892993654099,836.1094003449016,967.443099113174
607.7660748901726,798.8927464829248,745.0347380810927,803.5769619566345,690.9124077931629,-321.04306222676496,614.552090993935,783.941022629484
167.3308818428086,271.5297397580398,245.92139798636344,278.1783487737448,-501.68200780740153,-557.2837952213085,228.9021612816523,366.32721137283625
99.49274204399626,144.22373324745786,69.92923853275715,132.88707200971112,-107.7674353172406,-255.72952885093036,149.71280604120693,193.56833026734603
-137.3883293533545,-244.46149420068105,-316.29689286909706,-282.6425927100936,1541.727687109611,-24.848152153694173,-167.23226343871647,-146.57939105863625
195.42943402586752,86.03633399770115,26.61329044748709,89.96285075569904,3700.259286395438,579.4097076009039,90.01043377227688,39.75629262289658
638.8084587170379,592.903236831844,524.8805912027328,598.7988946117148,5238.1782164567485,1215.769850931636,542.0247171599058,427.2889196680826
288.8940915534404,178.4799789103854,128.82701555980748,150.44518976378458,3468.8240991750863,1015.7593308139549,196.7040244004038,103.62110346955706
328.95291470792654,269.07378463966234,246.64727994152418,269.1269002263798,1507.1913983516606,743.2331474487746,283.19623767013036,202.6587755419023
529.2568708814579,587.3832614636485,587.0283179701655,613.3546194571936,299.51536546980424,418.58325682344366,500.7335451644267,483.50322054329627
460.14840623815326,542.8324128425229,561.4202010818026,582.5972498745905,-1523.638838135881,-19.670074578089043,456.7254569480501,546.2679647932837
-80.04560438606131,5.111123587823386,-16.29225119592229,-6.213385817991366,-3092.137887565099,-644.5831487249343,-70.48783477444704,132.1367841602223
861.4992041690275,1132.5368902347764,1036.5024722751023,1045.5213243744765,-3471.517330215811,-9.528301137452218,902.8969039950025,1000.5780898554731
792.3037528441382,922.0822483514385,904.4050574143403,915.3611666648576,-2646.2975469523735,301.5543849794194,871.3231404086164,916.5553313795281
590.9578952630727,619.239804473691,632.5762657141386,646.4543399224349,-835.3594497328595,542.9013011932384,700.3852679526353,594.8070589457166
362.9612104890657,254.4950505023662,261.76675702253124,275.5579159705776,1233.3900408624831,836.5676537954641,404.9130013055765,260.1213402101348
-4.16616154330768,-143.85274308816952,-152.57646008458687,-132.89048917643595,3579.270550504847,818.3683551290524,52.47589508903184,-141.2522478812134
-788.6751857078889,-948.4210405821577,-894.2874313145257,-913.6026135300781,6166.652522427485,164.28136764081137,-718.4317598120215,-865.0905571686744
-236.4548205721403,-238.69181264728468,-193.86906930171244,-145.2762488162407,6309.457434344331,278.88895235162636,-221.47910953536484,-324.35394775320856
-499.1436451008485,-535.260115212197,-426.91857124139096,-323.80234910866784,4452.646942320642,-206.33882676027497,-450.3682232926785,-467.8649211872216
-1041.304355479253,-1127.0380472164834,-970.5285457254158,-905.9392074370662,2416.0681221076384,-930.7666231621934,-972.8970642630757,-840.7539185037876
-1561.1283024677068,-1643.3343625628477,-1581.5107939187874,-1664.8624974885388,801.958239027821,-1775.265157752532,-1514.083724089407,-1252.1785479606042
-1166.5591725532795,-1149.5604052686576,-1250.613574746898,-1402.2271268581571,360.3068983436551,-1788.0706771894602,-1122.7998535523457,-929.3252851977068
553.3674367216408,761.6584582389296,628.3415735115013,575.3707601111164,1286.134333581962,-351.3492997885078,650.6835427787028,612.6696922691426
1409.2016023653014,1633.134715449909,1539.5307480087886,1554.6787428297175,3128.2660292644787,773.3248788617948,1510.892517723125,1311.6241357863018
1443.2405089999447,1577.049759578531,1522.9099313816987,1510.0507492526776,5189.1358569083195,1354.6397626859598,1490.4635857482099,1286.4621022871997
842.0607694033788,826.4985073615317,806.5913251702859,762.9097543841381,7576.032615933069,1218.5556304426864,877.0256547845438,654.3646035098645
183.8379699607176,96.5986967112949,104.72849909735305,29.420761012537696,8777.655514606076,744.3889379383909,194.65900670819246,62.113854279650695
46.11534133634996,45.1531366255258,113.04412851199231,11.292624889985746,7149.618166982764,368.8912957046341,98.73707569461658,15.868694022265117
-109.68475545486945,-80.73485784358127,-5.2941736184075125,-76.50229117991694,4894.779177664128,-123.87830674864381,-42.4396024203179,-25.102136114117457
-171.80064023613522,-108.14171219283526,-28.189197155614238,-69.04526900053679,2753.750476596415,-572.6900964627639,-84.04243863288866,22.904597564025607
-844.6072698364733,-854.118422672429,-750.7418722496477,-813.2731268223906,1010.9232195998047,-1253.9513450116265,-706.5584734605436,-535.4848971307856
-2077.427554409027,-2213.4814261560496,-2101.78054952357,-2166.910758809725,564.972406528068,-2039.6043912043078,-1912.3311140303176,-1693.482500460852
-2262.792058911924,-2490.7024640936725,-2354.779542186963,-2397.5706900764126,1594.1890540574896,-1905.211159356686,-2100.723452096461,-1974.9575092545365
-2565.623202523315,-2930.670786931256,-2801.580417571524,-2865.0377903637855,4180.048646972609,-1829.4783147910784,-2440.456967301324,-2414.1686988493
-2494.7253431583194,-2908.32668181806,-2816.9290169974292,-2966.7164418525135,5831.595822426185,-1462.137193649336,-2456.0737664908047,-2454.871885993005
-2355.48799957361,-2772.479956978874,-2699.5983775459126,-2855.42569687608,6984.333094298367,-1118.0314082510258,-2439.6932998022116,-2450.4613430522304
-1624.9827126543678,-1826.0329920310169,-1793.4826540044398,-1902.4779869280355,9078.868555746645,-680.381362825412,-1707.663727611436,-1747.2735267533571
-1321.7254401917053,-1468.6824335264446,-1427.3641463261752,-1462.905419420642,8071.987200735894,-728.9538801653389,-1325.1359768581237,-1390.4162287057702
-433.21194722734253,-421.7432674190659,-409.59297122694625,-398.05880775397964,4696.872216100703,-499.09571070423044,-427.6293133594032,-438.66981956790255
-478.3483094372041,-429.07048861140174,-388.08710351172044,-398.55630418365763,2212.166694049709,-829.9205458559891,-482.7693143666595,-329.25738931139995
-1041.5731533985127,-1014.5350685977355,-930.9430643130521,-959.2903043190745,206.5678651844646,-1327.1437719557925,-982.1669080832537,-753.8545514214372
-2304.0625740856776,-2438.6865108311663,-2302.784059798615,-2358.8660734426767,-132.6642846086179,-2132.2756887862515,-2162.2883497178336,-1967.3058019980103
-1522.0423118465715,-1527.2270105770913,-1437.034873314643,-1489.7749957052747,761.3605119592685,-1454.0088775559695,-1357.2312674846207,-1341.9094373832872
-1390.8910742569028,-1491.7426543278375,-1429.0308701370323,-1480.4438009458581,2100.3700838300138,-929.5208032596927,-1273.9651286112412,-1336.4949705236368
-914.6478666307594,-1054.742477520225,-987.4391621966679,-1049.4956017260456,3953.351514901384,-212.9315871551762,-854.2789209196035,-970.2480072815683
-247.99537120482591,-266.5914450050245,-285.4403402312382,-376.0172813333668,4988.26043531805,476.2411300650997,-209.93564003296888,-411.90586281723336
1564.8675847330805,1779.6551607539377,1701.1122207467515,1656.9585641275205,1706.22887358343,1842.9551528135269,1515.9613860549107,1363.1058678573581
1607.899917647631,1757.5425906253313,1737.3099790931374,1703.4015481205993,-1105.657910171445,1608.1131824036322,1533.3814810125177,1515.063744197746
1955.7044626794823,2246.9619956814686,2216.8874203623373,2227.053589669502,-3315.767503488256,1455.4885389648753,1974.3615149958005,1987.0614076392635
2025.1979521694075,2386.405690182407,2328.6071911122904,2339.7065378133184,-5220.94840603882,1132.3584846505728,2124.48448163612,2173.988970249344
1953.697806854214,2346.536617679779,2238.259854128145,2254.274030839777,-6579.8747442233725,891.0018788040088,2057.346785013626,2222.177891944486
1154.9316545423062,1355.9049391868793,1264.2562762784876,1278.1763965465343,-6938.405473952749,458.7614160756966,1253.9439579803832,1460.6079895234548
1212.4941079911587,1379.3119266774793,1296.2122480498115,1318.0201346209724,-6029.664768096074,704.1081302991188,1355.745305562083,1393.641004871557
1550.8128362347725,1684.6860060707386,1632.01288451457,1614.8063021745074,-4108.813541758587,1343.6747600693452,1677.2168912717284,1593.257322378956
2839.0216401866837,2406.8320089953904,2693.4239903577773,2506.8575965671807,-2224.91539079987,2999.031627299478,2016.6122867390895,1965.0783663459733
1236.2188343521993,975.206965491705,1086.5488142402264,970.9317464737469,1168.4037311331922,1947.4915784512305,969.2319213426827,846.2462957612788
508.7367788777083,500.57057792669,434.76933400748385,413.5820683603015,4037.050197044002,1220.5387805970513,557.4356799095531,467.12014158023703
96.83436131635972,69.77880671027742,44.26446195002427,21.216150282794842,3293.021915958314,622.7479215071653,146.22507569418485,167.1276278333553
-207.81703963886685,-162.92861126102798,-184.29568976989685,-216.17143738326922,2466.9263136988593,-174.65984857015246,-101.91416832215873,-29.305414622120225
-1211.358461212334,-1270.4254917431626,-1261.752670368238,-1317.3536167398015,828.5731341723877,-1263.1427731045314,-1072.2254245946324,-870.4785726617429
-1915.5350347534113,-1962.2696743639935,-1918.760804976304,-1978.0009513407058,-514.4138915516087,-1974.9699147302654,-1745.3736535504831,-1480.0940401838016
-2339.1683068255315,-2399.56637662526,-2321.439620618571,-2383.299334225887,-770.3775544148812,-2120.1047051296828,-2104.2794650086557,-1875.5518147876446
-2975.471804823952,-3202.9654241062117,-3041.591107067774,-3067.1760903028826,125.64788263886294,-2231.4338772263345,-2762.988404482295,-2568.5900759634333
-2748.4892451089418,-3019.417018973989,-2857.0597218752546,-2849.5878169082753,1966.0764962039102,-1674.163941036879,-2508.4275971126704,-2484.714470011745
-2776.133039895082,-3112.154005055899,-2990.6883899732484,-3039.0878922465217,4056.1568850259064,-1386.5483817198528,-2595.393355568739,-2631.640875235294
-2750.7695665969404,-3056.7735404626774,-3022.7962462703376,-3175.563775164067,6580.739817134396,-1344.966965236139,-2703.745457789063,-2716.8379477922076
-2043.7072096344657,-2231.1609202505124,-2220.324434230327,-2369.144478490409,6113.858230742175,-981.6576386078858,-2070.7458558890494,-2071.7939451056754
-561.5225205368192,-505.5631331332479,-477.8477405286849,-574.8953779653427,3829.6195997788163,-183.9955660722767,-534.5609541840859,-578.4677892888276
-1027.5303400791463,-989.8650722629118,-929.426645352627,-1024.8695378801422,1735.1372249180276,-877.6602581090037,-945.9098634566435,-849.9801619732207
-524.6539654493099,-321.7445060929249,-280.6251121878231,-371.4827360566628,-140.87136331289366,-1006.7401884157165,-361.80155951571214,-283.4194510040443
-639.9950742127927,-416.4254310986289,-379.55108489045233,-491.7707039226502,-1554.5450431179925,-1229.7141000870636,-437.29107254588416,-281.6442253756759
-354.8696018383878,-69.89762020038143,-73.12894375547876,-224.52041383818414,-1677.3915544244228,-944.88235437501,-146.45720151826208,4.227300379697226
-694.5726297036288,-573.875084320809,-570.1081130948096,-758.4323127083758,-732.8196172608732,-898.0924163593186,-520.3622496787921,-406.5088574519368
-625.4257276131839,-559.3150852700392,-524.6687697930138,-627.0796092291612,1153.8576187160652,-441.8827430267702,-419.40990548536865,-483.71215118956025
-194.84871244745727,-155.07070773550186,-106.68526817317615,-209.45150273492072,3163.294754673363,260.68652248432954,-30.99484307876446,-204.54986757895767
515.1450099390572,692.2416520166698,693.4712449099297,551.4739448536411,4805.26057262205,973.8081957260738,660.0289092038729,412.7958740150807
1242.6228022897778,1537.2375339530045,1527.4938515334925,1281.7148141738617,6365.167320637687,1387.3902302747829,1323.7965525011514,1141.9116052296704
1297.6422391870208,1542.56193636835,1545.8385959325533,1341.4737167007409,5804.933513608965,1157.395473420587,1360.3638897348173,1255.3802100534695
702.3590255394008,901.8824758209566,967.9412859809609,816.6936252772393,3979.1954688959086,399.5043057465733,819.5156046962356,839.7979863306073
474.6612415037871,756.6718702115704,851.2261217036603,709.8976022710599,2179.846098123933,-166.22857898698078,718.6831003988427,747.8102942659202
467.70072981129397,838.6600018274783,946.5781380836124,763.269524459374,860.295086117665,-367.5516292272214,785.9561670262183,863.7474234049573
-276.8987166822583,-28.884046529368334,52.43959091416764,-157.63319086057936,577.7771931699099,-807.8589482046846,74.25366066296738,134.6109469288749
-1192.2830853472246,-1231.923024029779,-1119.209004734902,-1323.978490719544,1380.6245931026642,-1114.8186176556735,-923.0795893840186,-848.1473732601771
-1789.9141840924472,-1986.8110405197608,-1842.9032017061536,-2041.4057825328669,3236.12052055783,-1159.6730441627278,-1526.3843719625274,-1586.4986651891468
-1841.5056275523116,-2115.921771960213,-1957.9623107457319,-2196.09313548114,5182.671848098689,-863.3175691001479,-1656.385260602301,-1775.935163035535
-637.7168923343888,-706.0562589728588,-579.9890732378008,-802.6722196119936,3886.1810011029156,186.8077476354174,-484.65899338318013,-724.0810973224297
1132.7280011860416,1340.9492086186028,1439.3112966781646,1206.0605426047914,426.63173419996747,1466.6133457232613,1323.705115505978,1024.973637602331
1029.9337433280793,1216.9133567256613,1330.6092667128032,1116.7630964478785,-1119.1925353657425,1142.4167766627197,1230.6801722921664,1017.5567913060022
1687.3969122229157,2025.7262268871855,2149.6755205116315,1939.1625475195458,-3149.7810590235604,1150.2141890362918,1911.8077007255042,1772.7905661818822
1613.028258561911,1959.2070907550951,2116.27356674734,1914.0572074266006,-5040.051764297459,754.2311684262953,1823.0741113447548,1810.5331575116702
1630.8372415570739,2043.6316872123944,2190.7425292880625,1993.7802598642736,-6342.2927910385915,576.0519009726063,1936.2637157119789,1908.8482479621055
704.5005411289058,992.0946181341237,1160.2151489238972,962.4928036714032,-6486.988124329815,93.94704903921041,1089.7571156852187,1066.5008794713833
321.277884498013,467.5090632626043,672.4575288939504,519.8358530355094,-5449.488277866287,148.18631978850982,729.0431261736262,635.1548730898104
-310.75511992858765,-336.90121724405753,-80.40241760903382,-236.05563414454764,-3570.152043347407,179.1579672665307,54.58129424598815,-101.5215430117646
15.173414160493849,17.103406334836563,257.0425637726584,43.549087647055785,-1416.4859316079237,702.3884373100653,292.4908937411591,78.55055110307103
-346.7847086860879,-417.63819475570926,-226.05469227939165,-513.9729472234039,323.94638331842725,579.3617232580577,-149.95685069061392,-376.5132817867043
413.00714531569156,546.9554449538241,651.6082625615439,428.29611849480034,926.0194730209623,940.586559187273,626.5458255690127,338.6057081749168
1692.3928705852018,2018.8946065986938,2099.96397900184,1875.0599393823531,-194.27939441350463,1478.9852474334511,1937.4906534658046,1652.350971265143
2166.2703409901696,2599.3856562070496,2676.9566185807494,2431.530197143681,-1896.7103130304604,1349.1004270939202,2440.7358915659424,2245.106563721817
2057.002512114487,2469.4613509305864,2543.555861623907,2271.7543531452893,-3751.9643536389194,903.0251614158233,2356.664336781125,2274.9064916024736
1712.1611496220557,2158.9206551954667,2214.607420245723,1973.4175533785456,-5076.229552351215,612.2646376939465,2092.6861231372113,2040.3495147068588
1147.1782791687328,1492.4495242438115,1583.6747700362903,1351.9705374790938,-5174.027184156643,381.1437832171714,1534.291591155863,1487.2671740936912
387.35726625377174,524.1141654480325,659.6270647336314,495.1674450192604,-4101.88581722122,188.35457614429288,740.146123451399,674.4757136828848
-81.60321959423709,-61.33962382259233,89.27439654835507,-69.1707960659769,-2224.0122817720403,259.94623836924984,293.8975927058036,113.00183800255218
-134.92306524926607,-184.56716346151916,-32.90280853193872,-188.36181767005473,-173.48028091230663,604.2312613800614,169.4419060177388,-85.08595262928065
27.4147650299019,-6.965366509675732,149.73026133747953,-74.53581186930023,1350.8209476300108,860.6292857027074,301.9609793876225,8.155812558947218
788.8502760830488,900.2282495749896,1007.0958411506363,719.4380526163604,-520.7866651249933,1209.1268365920896,1051.708209863913,762.7338751192419
1052.066913073424,1169.7253403139093,1292.8703404596727,1027.9485297100855,-3209.0689361919794,1147.7225793190428,1298.3253589073902,1100.879209769726
890.9625579168041,1131.4956824543387,1251.875600366373,1019.5160743880115,-4940.4661895138415,611.1966619790128,1231.3779346347128,1083.0181390966136
1280.1418562153522,1635.801969469907,1766.3934507939466,1553.4329343942445,-6762.699338749866,562.5093746856401,1672.2558687445198,1568.6875724773417
555.3752903809182,805.1334121981527,985.7471849571157,685.3993058614687,-7917.5794924029615,-146.79668085521553,919.1147362801385,963.7316042638231
367.476097290466,615.6698394311315,783.1899297492891,457.80783689752207,-8003.5613731517515,-237.58905793545637,733.9215425732727,763.3059681581253
-107.34120434051874,5.717625642235362,180.1633679589795,-111.28087347713517,-7003.415164288788,-290.9286916019082,314.62738088668993,233.1753433066442
310.0220848463796,431.34456889087596,584.7603175460354,316.07576967447676,-4983.756075510704,366.83286483847587,717.3851898041903,487.9100077003786
-244.1847776415525,-308.04281375446953,-127.6757065995298,-428.5708332387039,-2902.9789360816685,453.2564421113566,104.8021993917173,-124.23256180871977
-1037.1592590733453,-1192.3292064345442,-1019.0730254396913,-1331.0427828992324,-920.965592628927,159.33193799874243,-770.1076769944302,-927.9270479476836
-2623.6583815976865,-2940.3459184900967,-2702.3816601816725,-3029.3441166129087,844.275363118435,-1054.8546762955593,-2401.144791968596,-2446.326453169373
-2678.9994634285904,-2943.860015962786,-2686.452003325767,-2939.5920189776953,-671.2681437120809,-1423.0699937543068,-2486.788815551281,-2463.9003965518914
-2151.8228605973654,-2236.585016318795,-1951.8801415499474,-2163.559849239311,-3097.428348276353,-1537.7681635597855,-1906.9852183345556,-1868.2903127318823
-1392.6873661182199,-1288.5105316423233,-1056.429175735011,-1238.8707250231073,-4903.293136299526,-1383.5903803598749,-1112.499189642671,-1036.1656175950175
-1442.7793929546033,-1295.3928568649626,-1120.589803757779,-1375.6568447216923,-6103.713325765802,-1664.015945629626,-1131.449507603891,-993.7882678606493
-1383.8990667233675,-1242.4200540501297,-1068.7118649479244,-1360.0622929498431,-6057.507417887122,-1600.7592899328174,-1016.7008933307698,-958.6544478555707
-2046.1232124714452,-2134.8100320399717,-1937.2681956506158,-2240.7498644810203,-5019.707034214089,-1766.1816176456796,-1697.1748638987783,-1688.3385833801885
-2310.4365990346923,-2512.210923697902,-2315.9063763297254,-2588.578013712805,-3151.037677664281,-1564.717235690002,-2016.507961066768,-2103.4263303806565
-1760.6467809109936,-1963.1509955293068,-1772.0635133217693,-2044.0240991222495,-974.07813035817,-786.3311137539243,-1557.2804197659257,-1671.5667273586091
-1297.0407143214134,-1387.6241823963492,-1211.6897170273173,-1534.780899140006,562.2157888307527,-372.6899290686093,-1076.0076927865466,-1280.2931211661858
-901.1348589281492,-905.4202620149722,-720.6191181111535,-1083.5550406670932,-46.40466417224707,-165.0006888202418,-670.520704355049,-876.5172322045078
-1316.1689452899159,-1360.302256891408,-1160.7087081582613,-1465.5467628132446,-1011.0824665641858,-707.2603857387705,-1103.9460542093377,-1203.981099511182
-949.0524826764713,-870.2945531861596,-648.026361055367,-925.0364445876357,-2350.5215572171833,-859.3387250789588,-711.2433855082089,-727.9118398248984
-1190.3313410004675,-1070.1982690334908,-845.3347674710062,-1126.5910142738849,-4127.171136135305,-1406.2211946172063,-910.1496115416511,-829.020529286976
-998.4550246432218,-775.4001025545722,-571.8824391680846,-911.1890873504435,-5309.524617542587,-1512.0530983624421,-657.2254976315032,-580.5920901216414
-1030.0821100020148,-842.3178399324588,-629.1093454768579,-953.3314643682861,-5381.936148505823,-1429.810873501775,-676.0369082448012,-629.7894994019352
-113.48947904281158,129.9202189365551,353.75566049063264,77.42029162449217,-4243.696063206533,-460.8710918178358,257.27866928719754,146.72805085981827
-421.807720184499,-295.55935743418104,-75.11963315112689,-406.5456702116753,-2301.1347180913363,-215.74538548450982,-64.32748736344615,-258.91942124352227
-283.59168621215576,-224.92424982658486,-29.790127560119345,-354.15589196050496,-260.0883034646431,337.8709050985708,5.856179243348379,-212.43866483457714
-781.2462942065704,-796.7145826090218,-577.8809644578341,-939.0929259624718,1408.3044261976866,253.0146181815826,-502.58325523863004,-709.5420709269811
-1107.3132345156264,-1100.7535285693848,-852.3876998011601,-1190.4029327275111,3238.705309752884,-138.34567092226825,-783.5427779202037,-1016.1207782873043
-1340.6226739135273,-1318.1541714120885,-1060.3784215302803,-1354.4080307258919,3224.4007111236024,-680.7722664309103,-1028.8488919554993,-1158.2895268972534
-1404.0001900158295,-1302.9198251534763,-1020.840122824111,-1266.175230077537,1953.1348739924142,-1251.701215433819,-1086.2042434806262,-1107.1723912161506
-100.165317068877,-125.61536230455278,-111.90842450627001,92.99285038442164,1813.4179020509353,-605.8117602770056,-267.15569418011546,-32.17392124839691
313.1655074590026,406.50218552379306,345.3581542637385,485.1764591632584,532.0494161010026,-527.2521258526004,194.07388489211604,450.5118114826389
-122.4336756139322,-141.3308516345355,-257.91652579850614,-156.85498182565271,389.155243623381,-814.0382751305817,-233.80127618129126,26.014769967440202
-16.99567418435744,-98.57719170411693,-187.51718184641192,-31.264016204443237,1544.0818251139444,-389.2580144285305,-139.6281420907357,6.911298581783626
259.24330566557387,176.17904876870674,109.72723998892273,265.99856687491234,3546.090351052043,285.069341412996,143.36016928913165,129.4828279119538
659.3573803329544,576.8133951599907,499.812262033879,628.1893380380278,5672.130299040177,999.0351395605473,509.3096918979976,419.7572939187519
439.90396137517246,288.09622755889484,194.6306350682541,307.25058367647534,6816.894463957004,1066.5459161310177,181.14060848968225,145.9800022853692
1100.0659062031907,1106.714196989641,1031.7776603672532,1124.7517171138222,6392.395997752315,1401.7912908720605,878.810580268897,807.9829588413272
1487.935451336819,1598.2164070485228,1520.7586353486215,1623.1190185734622,4308.776911421457,1389.0236681787203,1332.8624147274868,1275.4377020760671
1264.2889591071748,1391.8227807705607,1314.8501706733036,1439.4973888895793,2375.7766524256513,804.1335567786487,1208.8771767007343,1242.5271648590146
677.1896280953142,749.0968936528334,671.6095380827965,829.3695332681982,447.9056425939707,6.586631591674632,652.0309779426934,824.0348691999088
724.7850896111258,897.9225037543019,818.9267586792948,975.6986216453279,-739.1792366332666,-77.19161626135156,714.7370357223699,955.4443570546091
925.6002700881381,1121.5780803520784,1005.1961383023918,1085.2240600310597,-704.6433791519885,121.66870943685535,906.6433495761421,1073.0715963959528
1011.5145292639654,1102.590512221671,998.899952994504,996.6834268700786,458.13112011815247,380.09230914170894,952.8016081448241,989.5914312321538
1036.0818228305234,1039.8598238803188,975.6965984717735,1012.3718077168724,2391.1795932847817,878.1394767843467,950.821221786402,870.7470171700643
1252.890674584387,1219.7608736478905,1169.9556932769228,1217.3667438343964,4524.453368381277,1540.540846974839,1147.229866370516,1006.8482593030367
237.20943173652086,35.81642827941323,-28.629816382737772,-11.42178275317201,6240.633496055554,972.6454476587141,93.33258632442994,-23.24177411162418
-618.5924990014428,-933.3639275059777,-1025.3188198821572,-939.434656637688,6961.158560553471,231.8612714429937,-817.3927928365956,-820.5908646124171
-1183.9295789587632,-1560.5289673621974,-1640.942343849808,-1554.5992587250585,5660.506042231245,-594.0009503159836,-1443.2904943378853,-1296.9383120976108
-509.6092312088531,-724.3508710962697,-943.8221217000901,-843.0668237644204,2379.248260673303,-745.7919184433313,-718.499092270612,-489.3266544450971
-8.97991636810184,-65.86817847681868,-257.04932030693,-169.88440117996652,-1363.9415272388796,-722.1800280973957,-90.95597642195844,115.8467836416039
88.7693133649027,193.7300061182632,121.37679276104882,233.9143263891492,-2789.8917456879717,-643.8884460507243,47.18143554601738,204.8392089972658
182.91588074944048,300.1784551876699,250.20952983158168,371.01398759828953,-2677.714676298652,-432.5067417663213,174.48515214923918,297.26189668336247
802.8189662168934,905.3908825263607,859.7224160930273,995.7201024407623,-1574.3562597174532,326.82517803875453,819.3627409417077,755.9529892152295
573.4952320271586,509.9445829233646,481.5089213824813,587.7455962206313,-149.93923611641367,642.7791470836119,585.9479210515556,437.2046587542154
1016.4999368028857,944.3755002625512,888.2056406633628,944.9303555447696,1871.6518234234609,1243.8519672195916,971.0562627673862,749.4764282930264
1209.5068067819502,1141.8216257131244,1039.1507806596255,1109.4763471662845,3582.5168606605657,1615.8679209095671,1021.7956271653838,864.4063528063562
1942.6039260910093,2032.8478449112827,1886.9578865343392,2044.5673703758002,3765.4324458448536,2083.2466026058028,1711.2094058897073,1571.7527251902702
1320.3531232226433,1296.3888504273273,1180.32185748739,1345.9159564119527,1646.4304033223743,1336.5031762052968,1112.339068662699,1093.380050903319
1267.2237611696655,1318.1746700249641,1170.9348921961027,1340.4761247222777,-391.51206802702654,747.9544721001985,1150.230744037457,1146.3435205821443
861.5361880178716,895.2212412396184,757.8755175389197,875.5145375093743,-2228.281706365662,71.38056206279725,769.200814444428,881.9714984230341
183.25367358689982,212.74022734877144,47.34560536992649,181.19454506337206,-3783.3953033009457,-503.26276377433715,112.43086888188373,313.21650052083714
-446.9178195449131,-528.2682888510426,-645.7741521659082,-535.6915523476455,-4352.834411042699,-778.236655174569,-504.33772091776336,-298.8285342360523
5.468845640989457,-75.37212178386108,-178.18581628488937,-56.83030900517042,-3177.1779873258856,-159.2914436443716,-67.54130580208766,17.056498013291275
-94.25203038585096,-273.276555706052,-379.43375037472106,-245.87907319040096,-1151.5787095349078,175.65728575961475,-151.85184241972092,-162.486426737516
103.71801800710091,-105.088135511367,-163.72759426250923,-47.95620631751444,924.1358355081538,663.0223220584994,-8.348776126187659,-120.59728524412276
978.3188649793665,911.3790423803803,771.3636772627942,892.391133139543,1745.7480710908276,1392.5645937836998,809.1356628240319,671.6716302277982
1609.1897000194149,1680.2369318906385,1580.973293847528,1685.2927943924878,1093.8272163699658,1759.6613579166078,1406.1757891229645,1277.5477405521724
1196.3758887189942,1201.1848546420151,1151.389500886502,1270.0086120301057,278.51580964624736,1186.4060877813972,996.6273156073694,966.497996182723
666.5231554738384,653.3583266372225,651.7245473946205,828.4159042380015,-1435.8482713399135,448.27040136240066,506.9035700101558,602.5683880785546
326.4039586029685,326.2809207921164,325.65424150828767,511.2075637836897,-3286.014017831323,-150.6644167272607,205.66516452884753,369.51466276573046
-334.5705907731499,-357.6208714542554,-441.98055157728595,-336.3420438295616,-4439.742624062448,-889.3970905298938,-406.7034658835437,-224.93972790344924
-395.2774989702266,-465.0361638655377,-617.6513623058927,-517.6588712816701,-4399.971654471621,-864.8856700673532,-484.90218003906193,-296.30200979187066
-868.3079839059246,-1075.1975688596176,-1153.088602149499,-1033.7850557071652,-3099.41143972025,-836.5405751648468,-930.4558655141245,-809.8271487896527
-697.388990082909,-907.9670089569008,-956.4609887220013,-848.8702592601185,-1069.3149253804077,-301.9637040186408,-776.0943495755819,-775.845410204387
-1090.7714404470717,-1401.7110891179145,-1442.9232443587825,-1376.8780129661027,1010.8687111921827,-187.4263500383022,-1225.8053247974913,-1253.4702313948746
-751.9820611566865,-984.2152302023642,-1047.1003513646338,-980.4719328292267,2807.871652370406,222.4636888018831,-932.0260766444844,-961.5114635084719
-311.6407223882634,-424.7888722280459,-460.3646659237784,-374.21621379730277,3029.5327918143157,359.63484288348445,-484.57582467888824,-507.8952949866962
155.84886726256445,129.14013322970277,113.72453606859017,214.28641302723918,1356.7527265854878,312.5232893229859,23.871697661577855,9.670079691006322
-218.95302827047635,-275.40055297786785,-281.74777879219073,-191.7844588204971,-550.7793213006516,-373.28592433111226,-370.0409264098216,-205.71415932573836
-598.3851255410809,-616.5980597374419,-625.8961329551657,-568.3960892172727,-2374.5889600939117,-992.9934947383481,-724.6018254125938,-434.70208610553163
-936.5630482885063,-942.6995203610568,-957.9205631505611,-897.7900700913851,-3366.552478085803,-1381.533743584474,-1017.1301230467834,-724.0618251499709
-384.4129208648865,-300.792783005636,-327.8809054311114,-265.13644065807966,-3200.920016771299,-891.392983535834,-363.79165641722284,-234.05168154809326
40.66686961713822,99.83837915493314,76.90739805966768,188.10540074118762,-1954.722945644171,-138.1586233017406,63.15269975616684,113.32746903938278
-230.73587259587475,-333.427604619008,-316.3402265763707,-167.95772805034903,44.27891195020493,172.7328591300411,-217.36268695660146,-264.1984264917228
-398.75838292077424,-606.4749647055669,-582.5165354846631,-455.00080451548274,2130.4467675073392,443.795855401444,-473.19337148727027,-539.6731004917528
-936.5631699583573,-1182.8534008685474,-1168.0168502177266,-1101.1119163564126,4758.8033294660345,189.80543075242895,-1045.422309429272,-1064.6328509183477
-2082.079880410105,-2464.395303471034,-2425.726844512378,-2374.193998854538,5530.478377802698,-842.1452671178631,-2241.097459232282,-2153.5227582684147
-1017.3425793667684,-1192.9053343007909,-1231.2379278606559,-1204.949567352045,2466.3553642588085,-668.3996330134578,-1227.2012808330628,-1137.184520647348
-1011.9673443172887,-1123.6277771514651,-1131.8142282832855,-1095.7218468592691,94.31070506792457,-1087.88213639262,-1124.812242297634,-991.4970916962948
-723.5150447755659,-737.7798439218514,-751.8962230920033,-699.0831488693784,-2377.516327513644,-1175.7705390448937,-785.8097091875047,-597.5049813799797
-746.8956482815502,-709.2339739673089,-723.2619376981518,-706.6669188661863,-3633.631632367651,-1311.9551177080066,-790.8565068202201,-566.8470983424459
-148.08390341104132,3.9817427281031996,-19.927032987464145,-17.392114477414907,-3396.5454918258984,-816.268995884916,-116.00741545765004,-35.95327195023583
-234.8808266502565,-230.30729838260686,-229.14461861636187,-200.707005897797,-2126.1951777724025,-436.3338475779674,-217.95828110028265,-203.2019854527989
-240.3876663570536,-308.6141473993084,-307.4587439658868,-270.2274384088896,-54.34474573841726,-33.85663795795335,-236.5303942643227,-345.47819566725775
-280.75049931148806,-437.2709269288671,-435.12589671079365,-445.97746748996815,1960.6662982839553,289.34067743731066,-309.81404445585326,-467.92284741150434
259.31687475442686,234.3665726296822,219.55141407608767,175.8711599263006,2516.6004596763305,794.9343441258497,225.45103780738418,38.42650239600607
1057.1808946595866,1203.8481912400512,1197.1007689009018,1136.7473476771702,1895.738546017994,1188.7024661820606,992.6242587785846,826.708535131469
2220.882503550398,2622.8262858753797,2624.096079078681,2585.0549158518024,1726.3592953030093,1627.853961457935,2224.517267029029,2019.7660296968616
2581.7942948763193,3052.9949812118084,3096.1252804791848,3099.197118204802,120.55699274317158,1655.5387523083627,2629.268490606856,2559.380070650882
2444.0051768508456,2909.2638753143365,2955.114638061662,2963.1515752585983,-1702.4732474634002,1281.3123268613926,2538.034826978451,2568.2709746603814
1531.5155810234355,1863.2703587599444,1858.9905159672562,1736.387377177598,-2750.4837630943002,405.0144916587906,1642.899896327619,1789.5802431070315
841.0618593134132,1090.989221117481,1076.767509739746,982.8446075714019,-2606.653702016607,10.708474357481464,1019.5355554022226,1086.5445703054374
789.937848437301,929.6411323993525,987.2830051874644,938.8074676579236,-1237.5766048256846,361.5389716345526,946.3594309201635,929.2118005664615
326.430673408835,296.788196484129,371.01579439897614,334.80630008854496,675.1901860824728,436.0333454963238,444.98837871603246,333.24567152354575
807.8670886440414,791.3695553786929,829.2449620691168,801.237216391426,2694.6035740954903,1129.1161840434488,864.8732390728328,660.1248265057911
1161.679569867043,1218.0567601326838,1211.8327382618645,1133.1601376112449,3834.092898415489,1457.9885441364004,1168.4852502496542,966.0161573490041
2436.3757795914426,2729.65447183407,2682.597831053252,2621.3647612252425,4229.759338970638,2148.657764993217,2453.1075134680596,2231.9692356164815
2801.919127533656,3139.216804898497,3127.34530076955,3119.3297801880253,2170.6517135944814,2213.9521791309744,2823.5304057383073,2725.3951585006907
3063.49215440666,3502.3514256567723,3498.529220401506,3511.4981397290176,-123.77882512449287,2014.6673902362018,3144.780160352213,3089.128060059975
3007.4197391711314,3526.270268006403,3490.572227391476,3492.4943612493153,-1911.3850989018538,1582.366950046573,3172.932395355885,3134.575629054929
2505.1014133624267,2994.7835014656957,2919.4343236290297,2875.4884816238555,-3009.9242653372567,1161.7459112152828,2723.408253820562,2770.0255402906187
1734.7813902845883,2088.8128684972326,2043.8416972130908,1962.2901161807968,-2658.1174321938524,787.6218109305155,1986.6112439513563,2038.9177458632985
1821.6084649303084,2103.641651948332,2065.93023410537,2012.8017672267597,-1289.7148848624347,1232.2759671074637,2028.99563342303,1978.2970883994785
1277.8711776088967,1371.7234951313949,1347.207577263107,1301.3899585989857,764.9337881571264,1301.3164741155597,1448.072110279827,1322.9259963070654
1497.1529825089747,1523.6272575387848,1531.164675687498,1473.671620540139,2817.6785573568777,1804.5588886710757,1598.500812760918,1414.3264707602284
974.38846165414,963.812810298572,1006.1934106895278,858.3454570835383,3546.6841848244076,1488.2143584013393,1077.095230555431,871.1465004779602
838.6923076143503,844.132766536808,884.2541737141801,723.3761178979839,2441.870407019618,1177.838513778759,938.7620315304011,760.0218522840296
479.55101972567354,454.0545097754366,539.7805564314403,423.77237039745523,1294.1333075901857,542.4341862175716,564.040928156217,482.1196415017548
780.5919710001035,935.6882810977113,1005.9243525877464,948.4611466093629,-491.3886214699596,301.781847128128,920.3772922042263,928.6872703057161
426.79896014484984,600.8612080665844,654.7074633930679,603.5853907679848,-2293.639133576631,-270.3168781201748,583.6523577715125,697.5783103249487
1084.0522544216146,1397.5826406120323,1424.176183279349,1330.5089823958697,-3154.5231086348067,136.1046106294525,1226.9639043923817,1337.1856782117757
518.0193430852232,659.1214825949719,718.4451083244276,563.5587673217378,-2960.312633072921,-58.14017270075419,673.992013655683,782.5265298778177
328.36012840532203,364.9041338046736,422.85931424020964,320.7802575346286,-1583.0391789786809,102.71960516093532,501.29948292520567,466.6020415311941
-116.30586778828729,-187.6524891381414,-118.09789455196005,-233.4937257102647,502.3559150706642,189.80077566890395,68.50955884232826,-59.6761773820981
-4.925231747511134,-102.74044996736484,-50.56827383014024,-186.1755528346912,2161.9855603046453,617.265104700673,108.95181834004325,-42.35584601917799
651.0451033135323,631.5983139862801,632.6034286894646,533.7327912858673,611.2730814721872,1232.454151624821,731.3122257346913,512.1683691482322
420.67795476115134,350.5126573468442,347.524002960301,330.01896980150195,463.89522855247924,1007.4171679453066,429.6646782315729,350.4581310056892
32.255197028047405,-35.4768460579362,-49.412329014987336,-20.951777639718784,77.19539778535545,361.1179052159205,8.288978508222499,72.13069525301398
-349.7475684375677,-398.114906016046,-338.1948570701861,-344.8029608064753,-2133.345020947847,-378.8266272540277,-308.7672371545341,-200.46631933881872
-155.16116097535996,-58.67962339406222,-23.059719409829995,-31.62016857598792,-3816.652362685003,-594.7678210156664,-68.58157434988243,91.87500155017915
-881.9032806578689,-868.7661519861504,-881.2190332794999,-887.7321296782757,-4732.793320850877,-1185.1760669875148,-779.9160971907331,-545.6994269377756
-806.5985022329842,-810.4903917004558,-861.7431295497809,-826.3469653761858,-4505.76924769767,-987.3506905166214,-709.2375947200126,-564.2123633951705
-820.4869857942904,-962.9192063960581,-1005.8759777656087,-979.6733346901165,-3212.521375633438,-645.2219101837254,-772.5824448099156,-675.3183901333105
-647.8738106498931,-825.3011311166847,-852.0389433487144,-861.8876782499719,-1140.844723319493,-200.56464518242137,-605.2536653976931,-649.1572521535127
-379.64589981198515,-560.9462590634357,-577.5479188589525,-577.3662856998126,1071.3734822638435,388.84371211137477,-355.2363332954192,-500.5454838308651
-610.5349740061065,-763.7842822848324,-747.3853005077181,-772.1265094274131,2327.6949554643397,404.3519308539326,-613.1937419344758,-751.6115347150844
229.66139568391372,252.8207541113661,309.98861345213663,294.3741831798616,1715.9912012750865,797.5757746142626,241.97230665841926,100.4340330409832
811.3909816776431,960.0107022231532,970.9645554462622,1014.263152897096,211.93442859230345,794.5739960336286,848.5464868058843,750.7600750905185
686.6844163800488,847.3325098505447,869.1832976060832,926.1668448757628,-1452.169270231967,310.1033644870986,769.463135920334,768.9854363705526
601.6371643951934,827.0723550400653,823.8645814009142,840.61648094267,-3267.3423265582896,-129.46399465636932,687.884867077024,778.1251635036897
874.9979508412289,1235.5920349255612,1149.6642857309926,1126.436527196478,-4159.011611550344,-33.950771695919684,1032.4799478818823,1111.18947359937
730.9528410952262,984.6171878933819,966.0178275760845,988.7914951920247,-3785.054350316361,138.72023090490984,922.3388292252712,958.6868825432757
608.7438285962126,681.3830253553024,670.875107000109,720.4215712380246,-2365.7309811518535,501.70808315623435,734.1346259124766,725.3959459089892
-77.92362102668267,-218.07230712770252,-230.50814122908196,-177.28454177002277,-429.947981559415,413.831963608558,-13.130310070773703,-84.61695771160157
-14.633060339932854,-151.91021268593613,-176.2305748341896,-102.4061137294484,1606.356143304647,825.9369005199551,9.87968592299876,-114.99008025035437
-340.5171100255684,-496.87175118490995,-591.8174203578892,-575.276850629496,1821.586923657378,621.3901266288594,-411.85724903472146,-437.2549394493835
-198.82293994156498,-291.3955805989899,-373.7841374619529,-413.17179391212994,528.204719070869,434.07406813439593,-221.86656341599155,-273.02373867521965
-4.18495594754495,-0.47838050340942573,-61.41665329584066,-100.5576025240589,-1187.7232706584364,175.16026354845962,47.68087497531087,33.72823955885542
93.53411453857552,167.9950840596939,159.2756446509229,127.35793245743844,-3251.7761094140496,-144.93488530446484,201.8965676311782,243.85595530626597
-299.8176043804924,-218.84491483230522,-163.71016738857725,-233.30895230465103,-5056.674077805152,-737.1634870388516,-127.33744946389197,-19.847584672919766
-568.091203806478,-513.5442990060183,-460.74863118948997,-562.8081341430006,-5996.947870530303,-999.7071028893406,-398.68512565521814,-247.00945017876074
-1616.2286708163447,-1758.4064276450154,-1712.9195211794868,-1817.330372176657,-5673.284404299633,-1591.5661171416214,-1441.9024675245746,-1273.2332040519614
-1315.020076001987,-1454.3135970335861,-1408.1147359299212,-1465.0188001859206,-4128.491019256304,-1038.3042910575386,-1134.8076982926723,-1129.6844122716138
-1320.739264841468,-1541.9003345686942,-1455.1192413086173,-1505.685671961066,-2050.0802475821083,-606.1378670052145,-1182.5272535090771,-1280.1134982165822
-1215.7707948548268,-1492.3681386913086,-1406.1306063759257,-1448.4053693140522,101.04283385273447,-149.7633404918015,-1182.0987778779381,-1266.1144867489857
-2391.4380362079028,-2864.679628589998,-2763.0323552086484,-2794.076774955269,1017.5287832266076,-792.8019278892461,-2443.7075923994416,-2405.579154931722
-2641.626378129702,-3102.9320259850138,-2999.9276918826945,-2977.943651946982,19.271510782506084,-1187.5805690111556,-2704.534092320806,-2647.7039634104294
-3017.8461704896545,-3442.368836916583,-3342.003409781275,-3360.031792585585,-1336.5899261973973,-1981.6238931384032,-3069.394306666847,-2928.186354731006
-2612.1591649787806,-2851.5959724253153,-2806.686943419678,-2831.580488487136,-3058.781383719912,-2254.316444774413,-2656.406349417226,-2450.2895431705
-2333.6210909383663,-2426.0153621543577,-2354.4721804898436,-2432.043813274453,-4691.433117497099,-2394.7107224334686,-2308.807223028529,-2080.056621008829
-2329.9701869201017,-2413.810842232091,-2278.916209974399,-2394.8798362435773,-5567.2044347044575,-2425.5675056634973,-2283.3806402540213,-2039.1160560351127
-2549.6399938910254,-2713.7017855155427,-2565.6959163745487,-2631.08978193262,-5263.17945424053,-2304.7065363108777,-2475.4299541244472,-2280.545026024305
-2687.188201716712,-2957.8841980098696,-2804.8241644276677,-2813.9838174127835,-3748.867084211084,-2029.0916536743352,-2601.4805609793984,-2529.4342134507497
-2971.4107179637394,-3386.950773025019,-3229.8650968020265,-3294.79199160192,-1691.7746086923544,-1934.6388658277974,-2929.1052456716425,-2966.16881775621
-3124.260770582119,-3616.947572388004,-3480.783177032088,-3566.237639426119,307.5739851666731,-1710.1884714496282,-3129.0730869356157,-3227.710323478872
-3233.2874516650136,-3690.988448597567,-3588.573576345385,-3683.4614648675233,2454.895406594813,-1766.2665103748514,-3314.828478280804,-3378.9543928129206
-2541.1467206407233,-2883.3348196188335,-2822.4330270811115,-2874.8581234843014,2684.7485981499485,-1527.917711728047,-2670.026685004387,-2692.879329281046
-2876.1273542282643,-3204.209667376293,-3091.852189062549,-3127.9990180351824,1368.016395486895,-2094.537056416015,-2947.378583372956,-2872.395021758707
-2439.4282728167086,-2564.088295503324,-2447.4502326918027,-2445.4896713667226,-311.30341836175285,-2234.935794313187,-2434.4712298155846,-2349.988631062555
-1768.209114540041,-1745.5486379958097,-1612.6943855961981,-1635.6678003278546,-2480.53248969133,-2033.5256299381426,-1707.45850010604,-1576.6522775144522
-2882.598384890431,-3055.4660633557,-2892.541035622018,-2963.220240068379,-3503.7322589169926,-2836.22699183706,-2798.3034470980197,-2564.6422237084967
-4105.643651739527,-4486.770839088709,-4318.885092825716,-4409.0589494583965,-3126.901293134397,-3618.9470247445693,-3999.945600209756,-3783.6978373966786
-3528.6599432007124,-3893.443814651353,-3729.6002347304693,-3799.2719282583166,-1639.9257821097126,-2906.4470145397127,-3490.4141059300637,-3424.054170034707
-3061.9543726248994,-3430.434553363968,-3245.686117421943,-3329.874431403483,456.791225299341,-2190.4342606491946,-3034.913643905431,-3102.5497191918002
-2804.5244931707603,-3193.624697331563,-3035.95201615159,-3112.6349455827512,2366.9201682488783,-1615.477823695388,-2859.3963250581255,-2953.5241823242523
-2827.829409482367,-3191.5644385946325,-3030.8918788804585,-3140.988008587694,2680.0645359834525,-1387.044743122602,-2888.33876302056,-2998.8238231478863
-2931.735415281648,-3274.2517231765596,-3084.679497218269,-3177.1392864485897,2049.206923567046,-1682.4019962484454,-2999.8407046480643,-3068.762121341393
-2053.0746837460065,-2201.050003038923,-2047.55556244338,-2030.7775778462965,570.9753779079147,-1478.4714534336727,-2114.7721877919685,-2143.387199911802
-2229.6204177867585,-2338.787938304489,-2167.3144232853083,-2181.544452699971,-1307.7101322402195,-1991.5701696470023,-2278.969051061642,-2167.8432656148907
-1592.6120916308282,-1512.6876955825173,-1429.0157484646297,-1536.8622507227956,-3055.004084768745,-2053.8607024416087,-1590.8113536661403,-1479.3847569416284
-513.9942611302795,-257.1279766211446,-251.73583686938218,-401.7721805636975,-3859.282093301452,-1454.8379756069335,-507.2204536387362,-413.43853093400685
492.0749369809637,773.2509455341569,785.5873895515251,707.2684593735139,-3286.8316703072196,-388.04806174674377,465.9096588233697,521.2231665853978
-224.76514608976868,-203.53921069683201,-126.48360395878262,-203.3151186339819,-1753.995366036579,-409.54257827836045,-230.82916605508944,-245.6428800743015
-267.2192213653907,-295.96960703851073,-206.43735342975197,-253.87844424588548,370.35157765646727,-58.07326303704758,-221.40811745382962,-397.62170933872403
-955.378560789075,-1166.3757866561173,-1046.5014115883023,-1135.5138239455919,2301.9561627828734,-97.58447581904693,-974.6508233897548,-1112.8765581839216
-1428.8878202446904,-1656.507045060298,-1563.3020804731932,-1677.6755266330838,4224.452729851437,-409.9896287432857,-1519.8138893558425,-1616.3022515470293
-1599.3744504941824,-1763.7621732016269,-1676.1253486133573,-1786.7918117319787,5020.408870647429,-777.2599761362144,-1671.7873638585515,-1764.6807515126711
-1443.813628729451,-1529.4159416407929,-1421.3937994743683,-1534.3576952800358,3505.6234002101446,-1085.4079419638365,-1493.8418848525362,-1516.3726650930766
-1338.074266770891,-1364.3252131503905,-1266.948359491973,-1395.1545970727384,1497.9041664479446,-1461.4070502382674,-1424.6732841132325,-1291.5514902938194
-426.53028089641884,-216.3590017805691,-143.5169080058913,-262.94516696255596,-93.50785167319918,-1178.1144492690619,-429.8468269362347,-342.4179261408899
132.39353342624236,465.8568903858104,577.1205895034363,392.6470693484953,-757.8333262393498,-768.0007185560935,189.9067323720883,225.94774344496545
809.434929941006,1210.5904263397242,1339.1008510195825,1182.6982365662552,-300.50836262403027,-34.47940482008926,934.3749208113077,837.6067080965768
357.7677922545263,501.21233781866613,662.8113441328533,538.2912784062864,1255.4913804525277,169.09746847845963,467.96907044596446,331.93224540004303
-214.68148398207995,-206.71259698287759,-77.02868487103115,-144.9441889039881,3873.37848183803,164.05106430803062,-67.28947764313489,-299.1704481448942
-307.04266641516733,-400.804274880109,-297.8512257084949,-438.11271771156316,6147.895413318778,366.3844232023948,-236.3358293111596,-469.75500342962187
-886.2933967623285,-1089.1232024924539,-1039.6490153802515,-1165.075816981378,5717.618580840632,69.01679140864144,-955.5909996278933,-1068.9208238701976
-429.16100548042596,-486.1745102169152,-415.0791147024647,-469.9395228123176,2754.0039221880324,241.04247270308406,-456.15608313050325,-605.6601781931895
-2.803657377153286,132.9355405824026,215.54805200599367,133.11895672881656,1546.4934199934196,64.08412730311102,36.16364267867175,-64.55435712226608
541.5036844745337,787.0450185702794,792.3812219893225,646.6688590586709,-445.9640310916375,-103.79136407764236,586.2081314146562,599.7639673881495
256.9953993656818,470.0958852768381,461.4425151099349,295.7085980449847,-2130.8685994625275,-599.5813831037958,290.4542760696859,421.55564793740996
509.58679998586376,844.964146883809,840.3524446127849,704.5657890737202,-2780.4391591083804,-411.4054999955297,619.5949677996759,689.0662252414222
185.40371724206125,432.94977634080715,462.2604841479624,305.3932376802477,-2322.4079523502332,-394.8722167976812,364.50360830326827,361.7652075236947
216.1419085655616,359.45998762745876,394.56831039440294,253.63663208419894,-910.2521802477368,61.17586763271902,332.3141788425637,251.8372173369935
-277.6644839794426,-270.8181286539548,-202.03618550764077,-349.06320427947503,1193.8568510679306,129.57687427432757,-182.15724231987406,-371.78564419612667
190.60868287099947,212.36514225805877,252.80395185339148,95.73229243598325,3217.996485484209,775.732459025061,221.71815627357864,-24.54084638511631
-336.93126863623183,-409.0166549962305,-426.6494895979413,-579.7467137594067,4367.166812316308,476.79778959083706,-370.813098466504,-541.7614044211405
833.5083024791493,999.1290198103525,964.659865123569,849.40569570144,4389.656209414157,998.1637153531519,829.7447517872788,594.0738998516936
1192.1448707120253,1437.4745861001938,1424.15556720319,1345.5105585176352,2448.1743830758514,840.3880135497166,1261.17626124058,1090.7811000161346
1107.9185681150811,1391.5863290177258,1416.2317226170126,1351.0385958277839,461.0347239194117,398.4955994737793,1222.3735272149715,1170.6761090777327
343.35960734071705,578.3978400079359,571.9859558026874,503.2137005261684,-1255.4694371594203,-421.43201415716976,484.0131005902185,606.0945485819793
-17.664001235312753,197.9583795619219,208.53341009378346,109.28899664504206,-1890.5857749495533,-654.053577212173,160.9863731210935,269.34388635781215
-216.92660055392116,-72.43550946580581,-11.086431929914397,-136.62466108814988,-1406.228412901953,-637.994120895386,0.4795030442001007,-31.403253334385226
532.0828886055497,709.5624201633873,797.4426706617996,693.6249872122353,219.49979141891026,232.28013907515196,771.055237375549,587.8482259709235
-76.34841192595559,-78.4198909254992,55.76272702814458,-91.26688504295089,2192.920924581735,284.6564827106231,109.28996037719844,-83.73509066081533
356.77016104917493,406.54874682004083,512.9754580488152,374.8417155726529,3847.9427965336604,958.749811431855,481.4336942391892,210.86509618500713
954.6506339807711,1103.8043080345924,1183.6458385451733,1005.5057145127612,3360.297320072685,1437.2229520321416,1044.6397982442904,746.8567253895417
1343.4304953595056,1580.3711513029957,1677.6562129420636,1539.5097338699525,2056.2804381482874,1532.8916235154538,1498.649319556749,1211.7032615424469
1210.4077704166702,1459.8205477370466,1600.3584635605803,1519.898769296171,-501.603689073615,1170.3992882307357,1394.5604089692897,1228.0389528303167
1346.3748768552396,1676.9654453589937,1800.673198691653,1710.7487807509679,-2506.154545039012,765.3176359832833,1608.1266621322175,1459.595005008996
1165.4840439916188,1530.8881227572601,1618.930640077102,1459.7887011690436,-4202.079748051046,223.21242740337766,1434.5681371806204,1396.6222978858095
1784.2167326806011,2293.8716474812245,2242.798020731465,2027.8313817054986,-4777.868270021887,469.0372604282202,2036.662385778025,1982.007488451247
1493.9185782780405,1848.8573358584727,1808.0722926629496,1599.4364579606408,-4299.351021681364,565.7866292311846,1722.851913625902,1649.5988290169917
1336.0274732669386,1572.1094015096423,1576.4388877500387,1380.0754008693148,-2635.5642582044775,840.3686373023957,1593.4329240659954,1418.9581331580484
762.4354087016982,786.6994977120412,803.9611524989014,603.8432662076593,-618.341628174765,844.0771484882753,959.413353806116,758.1190583253847
897.2208897705241,952.2358413065394,981.3517947632554,800.4309806017081,1393.2238939754461,1314.2959622663057,1091.968187575978,791.2510503485664
573.6006537824796,617.3055385645912,685.1169822744487,456.4828424490588,1331.663466039192,1164.5089168549694,719.2784610611634,468.2945270643413
899.9707245487753,1032.1230576834441,1144.3688299669284,904.2074591635064,-1438.999407953168,1204.0673388465511,1074.6421187765882,832.2083479947923
1002.9928765781824,1200.1108431526118,1322.6191074876479,1121.8430028030052,-4244.1450449457425,901.4530193746323,1205.4793810409137,1066.2446338545742
1446.2976000024319,1810.6515582635257,1883.545942047258,1725.895868819478,-6258.150925527831,736.3073783086293,1692.3748896410907,1612.8275075861493
2879.099917650602,3108.2849019788773,2905.382347836173,3160.122048561532,-6298.921086190012,1440.8583483523782,2811.7564861623623,2852.518427003953
2550.0437138464094,2746.890277194255,2550.2429499912587,2818.3401044043176,-6868.55408709493,1238.4410595618713,2561.8746779351904,2564.5003134668636
1751.5297164187095,1722.8479650918516,1586.247581158359,1903.5057633071247,-6408.841386320031,1110.062902901946,1738.364876198002,1718.0460946678668
1267.046583616213,1078.0487024897448,970.2162283241942,1294.459067684228,-4788.66328396483,1220.7404528101233,1184.1834224040995,1131.0952598761532
510.46224479229204,206.01457714553362,95.86691946563315,364.24795180674664,-2671.2269563092887,1014.7174523371878,420.14315969201925,284.647454335176
1069.4986675118835,862.657276420221,734.2590337329702,1011.9246025305256,-535.1539124653173,1645.3605276046264,981.7390343978459,708.5273345402184
2445.455943243429,2490.1240354048296,2324.6490365503305,2607.5535002868182,570.7345180224693,2616.9698730059954,2304.4151185869305,1953.1652359064228
3920.4567389466265,4150.262543288522,3932.989986109127,4233.062963294573,-986.9580231954533,3449.9100807595987,3745.4089396765394,3409.318420826774
3563.9435581369326,3783.3381444898823,3574.404569550983,3833.7201544221243,-3189.8359482253436,2701.584414310688,3477.7165876198833,3247.4054838270404
3495.7646767673577,3768.612824271535,3526.097526118443,3700.0519478650494,-5086.833974801801,2166.2914062891505,3415.0621338999917,3343.6987791250212
3249.573354239157,3652.2991040887973,3387.377982042257,3587.1582625836054,-6551.271301648856,1754.972276130411,3252.1163592311423,3255.9651087754464
4551.066717773643,5149.64674657182,4866.447606216567,5137.747938077322,-7171.160821734222,2781.7196994065525,4558.578136824963,4496.609480701467
3263.5163001512883,3527.386845440811,3343.654627972279,3589.3308096283945,-6687.621628200526,2240.940448720299,3304.8741890739875,3258.2466962577564
2918.0959738945967,3015.8304827406173,2843.217765344809,3109.286244948533,-5082.644109325367,2436.2464522355804,2901.376461602631,2806.194486216991
2396.3998947469227,2352.963828542699,2172.460468727797,2372.0659731869746,-2979.316310692331,2345.22494031355,2387.76004796951,2192.4905558864193
2278.71240718857,2163.773881819252,1932.5639687724542,2105.9975291922747,-921.0629675921082,2456.1408123040455,2187.386620091049,1977.3903227082628
1304.455520580479,1102.5125276464241,834.8698200616709,1034.1325057063368,435.46280391909386,1826.6858664987485,1129.9648222836258,1030.939348434178
1163.701418224431,999.9074176003123,765.8408890180363,993.7615306849475,220.40217711794685,1439.424908239358,985.3193163650722,904.8577300204415
1612.97821399838,1598.743523378842,1404.0240786700742,1675.376190098912,-1187.5591891243384,1330.7222241885465,1445.6820971944544,1445.4739368316004
2111.277934411104,2262.612515673609,2093.0375453425004,2388.6086038741632,-2934.6090685731033,1317.4027443468804,2027.7697528100907,2063.450161398985
2111.013177597437,2339.155599960948,2172.636511014942,2443.4282682551056,-4518.195008944254,1033.0186840226743,2077.8714630476316,2167.1592604748002
3464.496932161346,3970.3334549520587,3732.085989363928,3988.222341886758,-5010.260406650952,1902.7953710038128,3512.3091311360695,3451.5074488605896
4415.7403287870475,4963.2676039322105,4715.5468650820985,4957.119600236132,-4325.929465771318,2835.908254476337,4476.212339116588,4345.013835078382
4435.931637550035,4825.51485041486,4651.120237986659,4846.320800926187,-2662.9731663057755,3319.569990093347,4483.065592817504,4276.926888038477
3748.220244931428,3980.848722459399,3829.4775440328885,3993.5494040342164,-578.7885873331252,3237.9687869133704,3805.0276543029686,3553.3272918030343
3757.639558586685,3928.99884074874,3750.6634755336418,3909.7201915050828,1330.848565879307,3568.5850737601577,3762.2540071308176,3472.2554709392643
2895.7373019903025,2889.5776101394295,2690.428159568837,2884.375863983907,1973.4678777729569,3141.5046312413615,2775.714318659724,2629.087476683926
2877.5995139738516,2954.2184402252024,2713.4510421868326,3022.8175272532244,1743.7895031449443,2890.5540705111343,2774.2781932067883,2643.522800327133
2689.111163854497,2860.9495559858333,2594.7747778089833,2909.1816015780787,513.6975558083213,2340.1213906216944,2594.41194910754,2566.1560891807894
3620.2892460738512,4111.04598732444,3772.7701651912503,4052.3110324136505,-1183.199301201268,2561.7215190407514,3596.960827905932,3604.769228367237
3042.3579221595573,3349.6076667331654,3093.2001107686374,3347.0652155391726,-2932.2698536516546,1888.7400002096547,3072.0096408310637,3105.687685935103
2421.1933154369326,2641.784744933728,2368.0427237073745,2645.2394346445944,-3564.858545235402,1510.0620903976378,2481.562222356457,2546.929127934418
1714.2016550647968,1759.9563651061471,1549.7347679237282,1842.1419969921844,-2971.3241383505374,1318.1769777156878,1796.1235405167827,1832.17181853285
1080.421799614065,926.516238249329,782.4078190590517,1086.9396927488124,-1396.601967604991,1295.9641734181932,1101.0216009143041,1110.9255355147761
-82.71243827379658,-437.02134500550164,-563.2803770647733,-266.63716959198064,728.4971809728595,768.4786281524866,-84.17276588873938,-113.20874511782313
-93.16015388256346,-394.4095901874098,-599.6272398742585,-350.69801306356385,2800.4105171138362,902.229711151449,-171.37018610659288,-217.17103614404914
212.46523338314728,-22.10083236490027,-238.99238271873037,-94.29976871816325,2431.9726178904675,1078.0087135776703,68.95177091279766,67.29997895681299
818.2269509137259,670.8607267331536,458.31830416366574,614.0670431398612,-442.27842282397614,1234.7427421976317,699.5372312103427,665.9960248538118
440.2734409815457,294.82716626205365,133.45941960808705,313.1543211062526,-2224.8989697329816,546.1480320111004,318.33966958211386,403.6358451051201
780.4381620995409,760.5113789878669,616.1042716445663,826.5734235899872,-3983.3950358640577,416.12472734261246,661.2618664315523,821.785794528012
347.89361625719175,339.05724401105545,196.55149989995698,449.564565758963,-5545.458810041338,-105.84985257536755,322.1725325750449,517.5782414897258
989.6911363032268,1159.349470576024,973.8741298456589,1257.2022136765881,-5991.215148651216,369.32218497282884,1039.8931443740003,1142.3630685737153
1132.0257778101222,1217.8814393315988,1073.4425537531206,1367.9552803563856,-5340.614656548627,759.7751939372247,1223.7818076616531,1219.9418483636982
1250.5403562402498,1261.093082796404,1108.5870988424285,1377.3302876521484,-3578.5940722629603,1248.4658295284316,1309.8218857216998,1223.2659423893638
795.1139659221662,644.1079995031178,503.52278571734496,717.7486679343856,-1494.6556409077602,1261.580431926166,756.331096141992,642.4049649252556
486.08859723302885,250.29773999145254,105.60876364597061,299.5523295689636,441.65233025515045,1315.4840320712392,384.7459489496541,249.60232733661542
166.04013589026,-76.24872048103134,-266.88424522556306,-121.00826368857815,968.2232716376457,1010.1779057735548,-41.33264505463012,-83.91793801843596
554.7752783588076,419.6719847688946,218.268111908008,432.014291835585,-521.1813182849728,1010.8284176039306,375.61682899737207,315.35467450291617
677.9029671157914,654.2983317068138,503.0024963863834,729.3660211378156,-2407.978805126695,661.5745922838105,605.5347208279854,526.7094962554256
1125.237845563519,1243.336286582824,1106.944271947461,1324.9118711529882,-4161.340667459546,513.8814917050331,1102.1694248513668,1096.6093362716929
1289.6514867610385,1488.7534646260174,1351.2220023677364,1562.8400086451147,-5643.537268354921,353.1578156463802,1315.5741003463918,1364.8765620289778
2211.651369406798,2540.095935088262,2376.5104827260366,2572.8468454592658,-6066.748184301148,1052.7407381918747,2243.392825056726,2263.4773298528744
1442.1727882163832,1513.361923730583,1351.797955353948,1484.101857544665,-5465.517986476596,898.610594136786,1424.868887837627,1475.7304768234462
1243.7342966088327,1234.728006276695,1094.1133833897038,1275.4319941119174,-3728.6336363716982,1147.1831888852175,1248.4698796650919,1167.4263230369834
1222.9851520704105,1144.2545669799438,1038.4142002850276,1227.5689293031464,-1604.8775521928328,1514.8204500409192,1224.7004716728843,1041.48707645401
2067.6468333908706,2109.0334947519004,1954.012671644654,2144.9732136281673,103.83798367122654,2379.585402953395,2010.536183096512,1754.7021419090743
2720.6043366601953,2834.5032231943187,2491.0484101465845,2674.8316542813263,-189.89141977913096,2716.5754848284414,2694.7543176688487,2530.2408129878168
580.2339949520829,303.64392802461225,-125.3840250968351,69.21049009005947,-746.9484125156887,836.4130674556218,490.74632513672987,661.2141471989598
307.44553287267627,217.00858148945554,146.54980946346768,262.1697550362587,-1823.8716211701685,378.596190160868,181.63424890261376,228.41952046578808
354.36603288099286,375.14785476251564,349.98950093472376,504.7599692526128,-3642.697923966014,8.380198488535825,316.0703111748153,373.52811403371743
455.82102674336056,552.2347207585699,520.2558501922031,696.9848815316509,-5049.390456169465,-184.067640959227,442.68687966781727,559.5968626731483
596.5146487963066,703.2899442299677,656.5583767871431,782.3370314757922,-5454.3917629829375,-65.2845327960822,593.4314502445195,752.474518226285
-510.75446324840595,-677.7897943805001,-698.310102965741,-575.313000774986,-4965.6557021111075,-575.2719155701925,-481.91856600283063,-339.82158741133753
-1237.2632236740465,-1561.7544282305462,-1566.1962894383178,-1389.1418478405394,-3307.6642744088604,-661.3870822441386,-1275.3981107838772,-1185.0314205870673
-924.4715728468582,-1225.9960162573116,-1207.4821076718945,-1014.58988992573,-1097.8236575660121,-96.00740792756551,-984.2987019635184,-1056.9875695906376
-703.357900223331,-981.0626855837909,-1013.5049922211037,-846.7426849434269,871.885973340075,335.24074655474396,-820.6286521555885,-931.7400691863877
869.1216135211434,963.9912793158874,783.2187915714894,891.1182237167086,2077.620008934493,1320.0407006793248,736.6354999676987,612.2638618075434
1585.4100976246555,1712.5821445092151,1527.957618208282,1615.243837244343,1433.5889654924686,1520.1177602800017,1455.7475588268135,1333.1518184265587
1701.0854559103173,1855.3733103841369,1692.8394048446353,1785.560118258014,-235.17574608916766,1144.7459874702326,1585.1943507335236,1548.1002746463928
1276.7299803024507,1434.038868314703,1318.3789650444523,1382.6065933473437,-2049.9967806372442,459.7051640885911,1259.2578539818496,1249.311583380535
1700.3772956396278,2046.1058754326805,1907.245560539217,2022.9080483298312,-3495.5744692316803,511.653721315859,1749.8047772409336,1768.8299629146786
860.3322415224393,1044.396374793083,921.3588646794815,1027.3250685795501,-3942.2079748893157,65.83922926167725,893.5002427863365,1032.0304705420276
409.34362891879573,476.6181892008608,393.2291756809718,509.4972086150374,-3259.5824543700437,-10.33496122782526,440.31014186928223,527.1323809666792
429.7073685945361,382.9175347145356,307.02893330410006,414.5937582849874,-1529.5370477340184,422.3703490148473,451.50811046412855,404.2062114362925
-206.992074486232,-421.95952826454595,-481.4229228073091,-376.52556916247704,579.4480194627831,347.95049342561106,-206.2621175180393,-321.05479655573436
-204.69900055071048,-496.0757549263071,-678.7783312653773,-574.5380188572599,2320.3378259523597,550.128825923719,-326.5884017563076,-329.01281143048254
136.51545457543398,-16.465261375473347,-143.19573957198008,-35.620865968448925,1799.395472462871,813.8439453155879,15.389509401400574,-96.67523187428014
541.3854498884466,474.09669984609354,381.05668510039686,474.00159189237456,301.7941428713093,819.7116962135333,457.902314953928,391.39857965818373
589.8318510173995,605.7046659724874,542.1565685211535,676.3877770798281,-1239.2604308786686,435.76766245909675,523.8183728246513,571.3741532936692
782.5201371794537,919.9114171986439,806.9179755373043,962.2395108048804,-3064.739091367781,157.90232979554276,806.6382831209921,921.683247668785
366.90933454553306,509.4213033455162,410.09486471013224,553.4779864601442,-4530.876305790007,-324.5738426021853,400.8450950253755,641.7717191793636
570.9625715642469,750.4628605139587,642.7867758917273,755.3657530813944,-4812.523102957057,-168.02654109039577,615.6513273867167,797.2505538130936
450.7530123802135,505.51737228759157,371.6002562990325,433.6306799743761,-4239.0861322090495,4.487455733542447,462.2652047501033,585.9054686209856
616.4000870466698,621.9748405927094,528.7712808661454,601.3787131965219,-2425.1498451789957,593.6081991680257,634.8182518925896,627.0943693754816
716.213809216817,745.6785233822884,703.8990048298001,702.2834129010298,-256.72414126453805,1053.4340476514335,747.4758966910449,592.2638794636005
1705.605024230419,1815.6314667111146,1765.1418533969118,1770.514445227789,1720.6764828886662,2046.6943459733448,1681.8435510848649,1449.8480099040316
649.2074349177565,612.0051375425392,588.7471852116141,582.1237135065603,2923.0878303449135,1196.5057124420127,624.5979220790032,482.77675188178546
1157.5309396428202,1275.0761831358832,1219.0672893879964,1260.3349643313268,1818.1923626576609,1146.1456717373803,1147.031729131384,1024.0425136046251
1363.6108366781846,1515.3102686119382,1432.7367212886456,1531.5642778332403,226.7681318676914,917.6622544168931,1346.199308747804,1333.6359265165083
1140.7427018350136,1304.4511883851665,1241.3353732732212,1362.4718727791915,-1561.040269196179,406.5019139888318,1177.271118695251,1220.611071868232
748.8068165616714,947.3772127107077,922.5376933904336,1060.8590819699457,-3046.5646806674777,-104.44675188703695,888.7807281701535,932.8460658666736
493.9022827501176,676.2758453541028,634.6451829696161,782.0688556231034,-3476.0732237818884,-45.974515774069005,596.1153409560211,703.7042604749731
143.89891748086666,215.474720416707,173.10791857120057,353.50171993812546,-2608.9561332193553,-27.742638299925602,265.409117005358,300.5496169122198
-34.44536344165681,-88.92332942344365,-115.07483988735476,24.314312982489355,-824.1707362807647,184.76372721868393,68.36012892531289,24.527954395394772
131.2508708673704,257.5473258289858,-5.695042378662038,50.08098164459807,2028.0473855200398,437.80813221263816,195.5314367353567,175.89862510046805
2476.059245915938,2912.587468866841,2589.1881315339997,2592.7776381863805,4609.195537013031,2216.469045817663,2482.1188370805903,2275.197796127177
3013.812583618681,3339.9448737786443,3171.091981854639,3173.662142653746,3782.8312782345747,2776.782483604169,3009.865531130723,2729.4754111346556
1862.492637479474,2016.1176557631406,1955.9841821326263,1934.6133950655349,2571.8670270773873,1764.5151027204265,1918.3824076859455,1781.3038384635438
1134.0789400092035,1276.7730886921927,1254.8972339760658,1250.607068274403,894.9758207718842,806.4384511702519,1246.4401240988227,1217.8819016164052
1100.0596700344759,1303.665819308546,1319.8080068092386,1328.5039881729172,-989.7267219345667,408.6208355133858,1272.5260411973868,1272.059028873191
391.3745625925658,556.8213431778131,581.8342144643539,580.5070505570911,-2554.5915386325214,-284.7679441089422,576.7168303588114,686.9050920339068
-684.7043693257147,-674.8085040679143,-652.9428782225295,-693.1396013416525,-2853.6012850890693,-998.7360299738357,-560.3350901442464,-346.16581099352334
-1456.975626251835,-1600.6593972337432,-1537.0622863854078,-1597.941463527095,-2130.9414601148746,-1247.6783401673601,-1356.3133173988608,-1159.4354137714836
-1578.439974152774,-1826.8918604829232,-1751.7306453146593,-1786.3099401905492,-463.7900285740325,-951.7688821009215,-1497.3486583393824,-1411.3593908074836
-2298.2604368622415,-2709.6393312361324,-2619.9958937150077,-2671.3053533619386,1260.7066675475799,-1113.2809539500595,-2232.6300715031393,-2235.9006981763814
-1999.7581922973623,-2349.7452255765093,-2284.5880817394063,-2339.563647104864,2973.4044771224435,-669.679954053252,-2001.3290689475252,-2049.4382553695323
-1568.54749868231,-1764.8183405717136,-1698.0756012054771,-1866.34979336767,3625.6730097174877,-497.0143025043217,-1556.152389928422,-1613.9289472483797
-1844.824462668359,-2025.909851836448,-1947.622710106254,-2108.8617137580295,3794.3618497547577,-1059.1258791071596,-1782.6635712434218,-1804.1909614807228
-2197.125767732665,-2358.1363666286925,-2249.436691719733,-2377.7659730373125,2672.047187813412,-1768.2430293395446,-2140.338573418485,-2061.047459149413
-1857.3885183737439,-1906.738303242193,-1841.584776399075,-1965.1228020819253,877.8943760191032,-1961.5259023837862,-1812.9194243191014,-1657.366076212158
-1480.9004478022835,-1408.3231483756244,-1416.3491207438055,-1601.9160466319008,-511.2571439986641,-2083.8166354181885,-1334.0324714741582,-1125.6225811947952
-337.1892041615065,-62.70230759729748,-25.81890893552918,-214.21101546118734,-763.2533767234418,-1131.71506154706,-134.41964482242474,-70.8641377731401
-603.23427809446,-523.8590176951257,-409.45094404714473,-561.7726473938237,-16.80242164360243,-841.5155524145812,-447.59072493032727,-405.36756335763494
-622.3843791924446,-635.2182340093132,-543.457830993284,-654.9507461672911,1734.8000245743606,-471.3913127282576,-446.78146808709425,-534.4156103002897
-577.6139645896328,-628.248361595819,-539.0564685912686,-666.7977896988596,3833.307478303439,-99.59711301355856,-460.92931605907506,-614.8047590854258
-191.19917893577076,-164.75763963584905,-55.190140833641635,-169.1720777671435,6176.8590880053525,509.11591745611804,-104.15456378560339,-351.768645891716
-1921.5611735956045,-2157.4615223691508,-2012.6930769668397,-2215.6792075319245,9298.242528356408,-799.9699235383596,-1913.8143621363706,-1971.4694417314167
-2054.0718407766835,-2213.7295760671113,-2053.91797256023,-2196.817484418818,8931.969950400438,-1308.346856342192,-2011.4831605712388,-2020.927399009437
-1335.4228098529275,-1318.6316368035914,-1188.7302276252158,-1313.7879034829966,6702.851582148607,-1200.464716063856,-1290.1102845419373,-1211.7710048057925
-1115.7228133490134,-1018.2905629744346,-936.0555734338122,-1092.229748003927,4870.492310560687,-1508.9532008185633,-1017.8600878006837,-884.186828908074
-1451.6565540360025,-1354.834500932906,-1261.1522041801654,-1440.2729939665878,3434.4017804374744,-1977.0012532726541,-1313.5352023959858,-1097.9591925454151
-1671.8442837957991,-1604.537936669527,-1475.5551361975522,-1676.4819829455228,3168.6572367212502,-2077.2647453548416,-1549.54108390701,-1328.3372266529914
-1549.7228188269946,-1542.6500667424261,-1400.5190296661895,-1583.2405840909778,3830.668308136126,-1709.3681814432057,-1427.1888072397705,-1297.0886539837811
-791.3685852694325,-719.5437788524141,-595.249715222948,-768.8518573444744,5352.817047064906,-774.5650619495136,-663.620860433366,-689.8469969391444
-670.7745393118093,-666.189702981268,-526.724299209207,-707.2140042445244,7396.76301214179,-245.36042294761864,-560.7737324396003,-689.5130689708021
-819.0945277395804,-890.3004748418025,-758.6866651134333,-909.136705342069,8253.595324071459,23.336636373394867,-787.5384350241802,-914.4744947921135
-769.1044694772427,-822.9175760647631,-674.1845382516767,-801.7611086307152,7652.624331139581,89.98105602595024,-744.7241125730507,-828.9966767503356
-2138.968973223513,-2386.834397371902,-2173.2396223930264,-2271.1079527513793,7361.4555559189175,-1158.6619921860256,-2095.8008235808957,-2040.9808178568055
-1966.072003322217,-2087.776310401314,-1902.4348677634698,-2016.6369366802828,5039.496812888683,-1597.00435140841,-1901.2431435737817,-1775.9889013571228
-2340.542788205552,-2431.578816011359,-2288.2698360277136,-2475.5248633125593,3052.0758783575,-2345.6185498098494,-2255.1857508862886,-2051.9634170636564
-1890.2507729075005,-1831.1862920295098,-1721.6716147859843,-1929.684844424497,1557.5943722896627,-2291.0515289036266,-1805.4283787037566,-1544.663753601606
-2143.5785203750565,-2123.7619186391094,-1972.0678292010707,-2208.6842226155422,1323.542628878742,-2343.49196072371,-2016.4220795271249,-1762.2750701665354
-2211.8948222015024,-2303.851519367163,-2102.267321826017,-2337.401639364849,2194.4906321883464,-2126.44874517477,-2093.5097818395006,-1917.7135288459394
-2099.3510315528983,-2264.500067029003,-2058.1972636663268,-2272.9183273656818,3986.073347765414,-1660.551832859186,-1988.685578110555,-1982.4611240881932
-1649.5728824098915,-1762.8471548403177,-1556.8397000690893,-1754.2659386741725,6104.373339319151,-994.2112127437431,-1522.6538320708933,-1678.9579249666422
-1582.419682170119,-1713.925013721193,-1482.2924264264875,-1740.2879225224606,7856.513253400379,-662.0083935699076,-1526.0763681209937,-1675.4201935101592
-1695.122437667349,-1800.882311038862,-1629.5158184563334,-1971.6259965984354,8745.356837687134,-948.9470144879451,-1624.1790159753,-1743.6782763388183
-2383.3100384285644,-2552.207105516354,-2387.8951581880538,-2754.7779707558657,8134.3270095267,-1853.1443023617321,-2341.7201472311863,-2365.7683984707255
-1816.116612680431,-1780.594610584376,-1580.4277418815764,-1849.3131990816473,7047.631395780074,-1868.452116846951,-1759.8342063051823,-1746.8477411689091
-1939.3189145667857,-1887.0727006012894,-1654.2660406286595,-1888.5706834101147,5176.228395777616,-2262.474688463524,-1815.6019913861528,-1720.953638010833
-1890.287336818481,-1714.7566603422747,-1498.3612465339538,-1769.0792865646072,3690.3732066306547,-2437.7081658590323,-1709.5269716839684,-1575.5967592584057
-2324.047939048658,-2215.4100610296446,-1989.404474767507,-2306.276548552705,3343.275857991757,-2527.110962287581,-2167.347739260731,-1971.453674362565
-3733.0185206267633,-3951.036958677898,-3678.597322079033,-3993.484635482222,4748.85375325221,-3238.9957004857497,-3605.2121398311137,-3410.5451020040346
-3698.671457603923,-4006.039388838937,-3764.2153432371924,-4137.939318439807,7097.636302268513,-3010.3629869658107,-3692.286645813787,-3549.6791616059927
-3958.6147287124186,-4339.819371606776,-4074.5883268108664,-4438.993370712604,9829.458109270532,-2858.923555628913,-3963.235469932144,-3938.1548306041223
-4035.5007451212223,-4417.308351996093,-4167.694722045671,-4531.811044081536,11856.329347167126,-2604.759138589754,-4067.007975369779,-4072.9873130653796
-4371.089977940959,-4750.506053097248,-4486.506029673299,-4874.260249387167,11132.108749704259,-2897.472841238756,-4428.318445663681,-4370.460798049666
-4234.056378176945,-4527.359086142089,-4204.20365085794,-4573.579272688934,9376.677644578413,-3093.6514129312636,-4253.0453899568965,-4155.675374653838
-4359.059606058385,-4606.662934295215,-4249.644373687195,-4562.87549346454,6739.048484385636,-3553.767367700668,-4355.998588069822,-4165.532877095007
-3806.407325093016,-3897.945261999841,-3567.0877150394153,-3866.394488336271,4459.865429810685,-3584.3425571065236,-3772.462555964601,-3536.3369968281913
-3646.991092548007,-3632.287583348705,-3337.395930031911,-3681.680771533567,3307.463738684746,-3746.312034661074,-3547.465646380231,-3279.9224573613465
-3676.982465025969,-3695.267763099677,-3414.185569768997,-3819.116674974517,3066.439033300012,-3673.0037866922357,-3581.0709963148256,-3318.1941493162158
-4198.241012365812,-4379.898106089568,-4073.661074470263,-4464.093439805132,3952.38884318903,-3770.6183551400572,-4068.039915346293,-3897.524655278852
-4431.131329984775,-4753.205952814449,-4413.996636944768,-4813.945937208231,5852.585019284561,-3509.746644809373,-4374.517122294001,-4239.960249371372
-4668.543112241634,-5063.365456949268,-4690.393571553021,-5115.750064565098,8235.326467057814,-3348.2011700931325,-4654.151990653507,-4607.165490177387
-4027.224852626492,-4350.790359724462,-3995.107598194005,-4407.831176600554,10068.821488730297,-2587.5537225995467,-4090.679577600815,-4099.811968382441
-4684.854274697118,-5098.104920097943,-4702.78156404083,-5150.801003377335,10221.078664840097,-3139.5608630323077,-4731.961672103869,-4708.140243494014
-4387.353419477598,-4706.30383686091,-4316.447184309329,-4702.845217716458,7489.438663656401,-3222.5739198712326,-4417.218981357377,-4336.725238299883
-4120.624033577831,-4319.946167337469,-3923.5596228441304,-4268.659553841943,4997.210628380868,-3442.6339174913574,-4135.3495237922,-3985.5792157913493
-3470.7753192308483,-3537.2624500967086,-3167.2835004905855,-3519.193706467924,2593.3636342068057,-3384.187112496671,-3526.280155822463,-3277.761088702784
-3415.1418117664925,-3409.437914944734,-3111.557157497632,-3520.078363018714,1071.8491784024664,-3645.103290284034,-3435.408621256719,-3179.474385514122
-2660.05644340423,-2572.645148738325,-2300.5549908373628,-2683.5894472910545,909.6238355360256,-2978.2955790692213,-2680.196292056787,-2484.6803087945736
-2458.9738001431606,-2430.9251642801487,-2116.6770895854443,-2480.365610677427,1859.9232237529359,-2449.243829974561,-2427.1503741054635,-2360.4581803729598
-2662.883467360561,-2747.6566955469216,-2401.483380200949,-2782.831297275381,3565.8771211564163,-2107.9274171170277,-2591.38462103419,-2655.699863696782
-2940.279866578757,-3163.0867233953322,-2819.081716999046,-3211.0003096032688,5272.1117871772585,-1970.1152715602911,-2945.9877287563913,-3045.787417664894
-2549.03513248351,-2727.581165780368,-2411.6493965481422,-2822.04743215742,6925.790318926316,-1573.981559356047,-2643.428496897289,-2744.596788858529
-2891.941038178891,-3122.2026769972817,-2803.2654569071365,-3173.211932591792,7680.901927258383,-1843.2454293599003,-3041.5678032643846,-3051.387447190811
-2668.472958033024,-2825.517904964494,-2477.6754199640636,-2842.314123407654,5596.1900841453025,-1960.2966514753334,-2830.121795998726,-2749.1648924989568
-2842.1600118913993,-2958.3464906549634,-2621.6545836654805,-2976.034390614892,3623.2264110704127,-2574.0509426749486,-2943.9811469441647,-2801.725525525444
-2542.244898230172,-2532.098319798344,-2186.549720931722,-2533.725521705219,1078.4552507062035,-2714.4370450238875,-2562.681926135243,-2401.3799333606294
-2832.359284419799,-2778.413976464115,-2433.0360369661685,-2807.943312879408,-915.0578782049124,-3036.3696732787284,-2800.8311748323285,-2568.765029852646
-2637.176737524267,-2543.6946712754398,-2193.5019186496356,-2589.9857922212323,-1633.0529633974948,-2747.200427857537,-2536.0653130244937,-2355.2961030174774
-3573.663959709258,-3770.855989150721,-3405.9099617728934,-3755.051350759353,-885.141554671718,-3035.0343008806303,-3521.0355436190657,-3317.4737932848766
-3765.6074453556103,-4075.2074165715167,-3709.556614579764,-4064.486093797568,713.3977302061976,-2809.673002129024,-3771.127011294986,-3655.567778119388
-3883.5759303490267,-4217.1551887422465,-3847.813485241779,-4191.548015259978,2214.200547193963,-2552.8255175286286,-3883.0797323576917,-3894.8466145975653
-2518.4638621896956,-2608.711709247633,-2263.6144689059074,-2640.086396117891,2734.652879374684,-1428.318836390019,-2593.7327385234894,-2666.2348420164344
-1595.5385072530553,-1553.6343819340982,-1258.548385642287,-1673.533842668483,1259.106240756868,-902.9941578407525,-1689.276448352095,-1808.1772752429097
-1047.2366172129114,-973.6952697841625,-676.4700591763249,-1009.1067855408837,-62.65285058467998,-778.7114402015577,-1137.396801429837,-1211.6906477626035
-1074.56997880563,-988.5298820229436,-678.2133677373131,-1012.7540607569463,-2080.918321149773,-1229.4021279061126,-1153.199908342598,-1117.3729444550772
-770.7733300762775,-584.5885540951276,-260.2658040987517,-593.7079641759774,-3830.3476801271026,-1331.3577709418096,-791.0923811852917,-695.6776902424681
-2026.9830836704714,-1978.5353350247606,-1670.2001864101549,-2080.306383311283,-5132.190554815737,-2434.5261910373083,-1964.4348220570464,-1764.9466432759073
-2827.7321662878385,-2883.2622659423578,-2599.7863322523262,-2970.4396977175784,-5338.296586097917,-2941.6369343786355,-2772.5537368509613,-2544.40897764689
-2522.9216980025813,-2575.113279657693,-2267.4943731152816,-2636.8229769815152,-4247.182419492019,-2464.651832645519,-2459.117088881372,-2319.128902252509
-2093.4196438237996,-2137.309470968721,-1806.6956178926412,-2123.867517686005,-2278.680947916975,-1704.554362693707,-1988.1461936289707,-2030.464807764707
-2351.4547754763553,-2497.7470235426663,-2146.2760536200876,-2481.398670287941,-229.79999992663215,-1461.6068747356621,-2298.677878161041,-2398.549826330469
-1227.212729961997,-1235.0209554005778,-955.5321885234152,-1341.3897794821169,1040.6523194744368,-538.3244590088652,-1283.4250206244906,-1448.4646754217974
-703.1474749426707,-623.1822859268505,-351.4253581521698,-737.8566904741383,590.5280434491433,-218.9447711801986,-756.0170934271737,-874.1671186048698
-809.3964020327476,-722.9541038314055,-434.95568151607586,-749.1858220648865,-1269.339685316343,-525.6062815813639,-843.9912196520308,-883.6454406472258
-1180.1452270378359,-1085.2724489846805,-744.2502054289143,-1035.5778908280117,-3220.234901300224,-1156.3216728139232,-1156.7050231267858,-1141.283158873739
-429.0904075620929,-153.38195926049957,208.43227341378224,-74.09260596329113,-5045.26813754582,-1011.5117894151481,-391.8408455004683,-343.61888259546686
-307.7746367144573,6.081731236139603,306.81445895821525,33.03729173411557,-6384.36035136602,-1064.9875714092123,-192.00582391610806,-105.20808553779352
-1101.3484896055234,-930.0165028301344,-673.0358661598148,-985.9698297592768,-6414.152607941549,-1631.516799757308,-936.4613671109328,-841.2354339103767
-843.238547751811,-747.7447223628915,-511.3142304739158,-905.0281525228347,-5263.465727650662,-1256.4433041715965,-733.2151121653442,-670.4854591684489
-1474.9564113446468,-1578.4375938583398,-1300.6226341392903,-1699.8454719199071,-3340.4358469814906,-1204.71188899735,-1405.4968212797612,-1425.9000976271418
-1017.1264776036114,-1102.0157736112596,-853.8532676667892,-1270.512888909434,-1196.1832562239724,-549.2011519411535,-1037.8201132240865,-1152.7981176738394
-1619.8428382802813,-1821.830970057592,-1554.2885833344044,-2006.219444841874,501.00045371157466,-710.2450254993819,-1722.1500312862918,-1767.623915825614
-2471.9871209316334,-2776.3842871225643,-2493.57094064213,-2904.7900903268164,-146.11417148364126,-1331.8290017190157,-2635.45935798109,-2542.083774417828
-3210.1367706411256,-3565.4614379682316,-3218.6261794243474,-3591.3823964306794,-1348.4192350961384,-2209.7034321720057,-3377.569410302356,-3183.0980891814106
-2901.9342393351253,-3094.537432675759,-2715.9811091903975,-3054.502738655763,-2876.1469679129077,-2525.8256110399743,-2999.534269281241,-2782.356236062362
-3005.3764132462093,-3141.945563036439,-2778.719608691623,-3161.9737116825563,-4642.526478182699,-3002.45841199968,-3012.6469585760788,-2774.898090814735
-3387.7768401575686,-3773.873864059537,-3829.91281011996,-3673.0755356614836,-4791.367270701608,-3438.0040445915033,-3747.850619606889,-3430.986092438731
-4820.988112471703,-5496.749190305625,-5495.615647232462,-5396.582215106048,-5030.51082043497,-4282.7484773095075,-5205.722001051132,-4802.120893753823
-5221.438560847249,-5991.656917098004,-5969.59623810349,-5797.414867788402,-3926.3715756289203,-4271.873029045788,-5623.699998532427,-5316.332489894492
-5368.170114366887,-6189.38878651676,-6167.466288890517,-5943.529363024716,-1933.960784414976,-3961.00853673014,-5783.861865603587,-5589.071938435129
-4851.06510220957,-5602.343583231581,-5603.486364201795,-5362.011592702442,186.52912514396667,-3294.2153003905623,-5304.027859878101,-5225.097862808849
-4206.609398819142,-4893.370110967331,-4930.392993100439,-4728.311697179732,1818.2308020324035,-2606.677023320306,-4746.453146906169,-4702.907915823253
-3775.5324746287624,-4326.405011466475,-4395.095778480125,-4154.405512517791,2908.381730804751,-2440.8196150417607,-4304.019923232845,-4269.719259799229
-3541.5450626247075,-4025.167609980381,-4035.6097759712575,-3760.5398223032316,1927.1900988126908,-2563.099289529713,-4013.888291687559,-3946.905817042003
-3497.431204173794,-3953.1028441873204,-3914.633057581683,-3632.314217296611,-157.36987334483638,-2945.792353236113,-3985.756367186492,-3797.5755247914567
-3870.284700536511,-4311.139795306248,-4259.9516837551855,-4018.2790151103545,-2113.2366194938622,-3567.330682273725,-4317.670228098788,-4044.9373947149434
-3055.526388520091,-3255.368657165549,-3282.256881022651,-3023.157459461181,-3333.1261024263404,-3179.13577617213,-3480.1723121430914,-3234.069468024718
-2171.1063334836435,-2292.938018979461,-2350.560747925847,-2076.137440601822,-3355.1143316654197,-2413.565707737798,-2570.1645038887727,-2392.393305573627
-1968.102451405859,-2200.820277832747,-2263.0664185024216,-1995.3463309293365,-2219.6005791266834,-1971.7885046525553,-2351.7017963634426,-2264.7622240252967
-1841.1353203923572,-2142.176277561841,-2176.120231995221,-1944.9674021259198,-292.707989106304,-1447.0478980942498,-2207.378955657681,-2255.561138956342
-1576.3986683793555,-1872.5634334768401,-1948.1632355191832,-1713.4739171758629,1853.3890762501032,-933.5688145553795,-1957.2950599160831,-2107.852884594591
-957.4383636356797,-1185.9547775762476,-1305.9401330069159,-1078.7020030447893,3339.0762149776856,-230.910542084981,-1408.7203783825753,-1536.4040703320497
-325.4080809343941,-420.9065642841306,-563.0683459832726,-282.42579785991984,3576.350716793784,133.3959129701616,-771.8697146791092,-882.80376518298
434.2499315656387,444.0207760858757,308.7306351338557,641.4462581121479,2384.62349495283,401.7147171007673,19.49390583927743,-52.864306735609716
261.0655999013834,276.75645382860966,161.2542145998741,475.93594846175256,292.21402100523846,-130.1383597861568,-84.30239329544565,-75.46106494365085
-54.583149997684814,-37.993705718618,-146.7912873899695,142.99146076347097,-1280.680727515024,-739.4066741555216,-358.91005790646886,-276.3558552450704
-1120.8901656681555,-1239.9787057612048,-1340.11987407352,-1086.045730383572,-2517.747379767701,-1622.9848237387923,-1419.3234181135922,-1181.7748628093905
-1235.4874126998984,-1370.7767955993986,-1486.2406217230237,-1242.7296900425863,-2429.2060858154055,-1641.7284496648062,-1532.051419395335,-1335.8654839806259
-1192.8583669996951,-1387.1124446733957,-1463.972057636769,-1244.914353148546,-1354.3195496986518,-1298.4912743403984,-1453.6712955365,-1370.3634316772586
-784.6458926430423,-995.626878745752,-1085.9612367665832,-828.4008752711816,609.0217444504342,-551.6788562725051,-1066.7531800802972,-1106.5819034601736
-1279.1620649741017,-1596.4833192378283,-1648.3708656881936,-1403.3893104629533,2791.339255473964,-511.3391155898207,-1562.4929500484432,-1675.8404614930987
-571.3485898324652,-772.0424455334287,-837.561149386529,-565.2048647512129,4529.340330494682,238.51785035026114,-862.8735038152518,-1052.2699006632756
-77.3105974786522,-202.97913506858458,-247.15322281914996,76.33114659685089,3672.5732255802704,590.9122578029856,-373.9875941481878,-546.2478145899513
91.6442490305053,21.59058812778676,29.53033184049127,375.91025137057295,2315.7599902513557,486.52721958822804,-199.1870273041568,-258.7190362878464
-466.1789467642084,-600.5902431943687,-611.6407219519751,-325.24874079506844,805.9529342589765,-429.65129626855924,-747.2136269004113,-675.7830263954675
-57.53379075109842,-86.43204334918119,-190.12205417368386,-25.148084795459,-1029.345422318546,-764.8986315383663,-367.71111402704264,-177.10372805490624
-109.01039040061733,-70.9374495416123,-242.7618956415099,-201.43605279148323,-2248.0489354337697,-1148.8860718164942,-408.27307527550147,-131.135176236392
521.6929497259262,648.2486764582136,518.372055881613,597.3200495817073,-2117.334744474215,-507.68193930567213,262.18570138004725,420.9541603934049
371.8858709235865,389.987160753677,329.7079420129885,441.0580830154431,-913.811869105677,-124.69505358621973,208.70655244412774,194.0223417563684
359.5876762025946,265.92633026149997,219.98082619866182,354.55836156628357,942.0990883761724,425.36019100339763,146.59015964910213,73.18270837659657
-318.5410581856413,-559.1522263005754,-593.8443937195698,-463.1004057224636,3022.6435507876704,323.0093103154577,-551.1386776380386,-687.8859128464101
-380.34562653263856,-638.3902274215216,-693.7993334142666,-546.9275039375862,4198.955878268425,493.44412940298935,-658.3391644500225,-777.2831077416631
-668.0517291189972,-1002.2357491917501,-1049.322848320633,-858.511897914068,3438.960642719835,119.5186581268863,-1049.97206144972,-1030.6031883260875
-352.8446787836074,-558.3332764718361,-550.2976933429745,-352.7069475140888,1670.9072103273343,-56.67896748147905,-687.5137647628726,-619.4196559918055
-493.1865214446807,-634.5853026101249,-598.6877366795961,-404.32835776419233,48.50563974664874,-670.3945447410952,-754.9817340675218,-631.4895286360697
-358.5110410746347,-409.3060474100348,-367.65212155612244,-205.41303335374687,-1715.258227670854,-985.193536473962,-568.8230763373431,-392.27347685770656
228.8964054765238,365.830809325329,335.44932637905004,483.7129236698165,-2784.1227296639154,-773.6676332765492,76.72317021193157,240.2045108492748
1250.2492643064688,1480.0315621687769,1364.109704744391,1538.3600913675546,-2822.509001928795,184.18407724604913,1118.9665366961417,1206.658796556585
2160.534137000912,2432.739407684072,2295.6125366823835,2454.8153319187622,-1583.6663236085776,1133.046085214235,2068.951575733314,2014.5392715443159
2671.3539599778305,2886.0296151564908,2671.009055426781,2788.3430824368334,433.94549614561174,1830.7347957442616,2529.5047512109886,2454.499037121146
2242.9154600636684,2281.7945695405215,2004.3212406463135,2101.9798333958024,2429.94839874751,1885.0614284279145,2081.020506366607,1973.5879349604656
1902.8906737464858,1889.6890891994335,1664.7940071619523,1765.8283873510372,3797.3843349249096,1926.088018743867,1664.2540380189894,1555.5006478836367
2304.6723646481914,2455.039882256431,2327.2527970986193,2387.779605280004,3287.1276819279133,2057.573119416673,2127.342540632162,1953.4770241260558
2908.294972022886,3170.3667417247125,3050.3581351331595,3140.4118797762567,1397.4104819296917,2161.3187394517954,2734.0696040409166,2621.1052021953
3105.4024852154907,3498.4162496959034,3394.112349881325,3501.5456584253407,-302.0306248965644,1904.545593559109,3025.9740021875114,2927.67331029872
2146.901522807959,2406.8638687599887,2252.3730036555717,2352.155322995859,-2171.260645133015,909.7040698348646,2106.8484113764425,2222.4932311894445
1594.1488015436626,1883.3857893697495,1817.5869895377473,1893.8163400698395,-3265.181270318128,458.4062184745926,1565.3121163620672,1676.2451172023357
1805.468269255085,2102.8622724949673,2040.466215864457,2088.305792249892,-3276.6295555803194,792.4761949457097,1759.8654505918894,1841.1944346834935
1862.9437639388561,2052.8070089212124,1999.7735853540144,2028.3730120765904,-1980.1147248618,1149.3758773986629,1828.5921315624655,1809.724887615659
1155.4608651996896,1145.7581006822002,1148.8814786116927,1172.3174330596594,4.093030120352978,1127.223448101562,1099.3933024519283,1021.8290050488504
901.0004747910862,827.5589327462512,848.6063741478574,916.7545979640054,2034.6881090333795,1285.6433720962596,851.2653028270797,681.47809385234
1093.7335588023707,1087.5421792594934,1083.5360864548857,1133.3138366546773,3040.742902035624,1571.666571522448,1007.4257900706943,850.6644653914045
2664.925495765601,2929.9210655435527,2831.237583695256,2909.612716516749,1866.326928210629,2553.706443366813,2554.236613511035,2383.5041559688398
2658.2020819067984,2893.6255200484666,2801.541357960581,2925.2815268180166,-274.67359636679294,2308.4312677839152,2560.1689325432308,2481.2208671912013
2839.9292299585395,3189.514798839664,3093.0230716482183,3220.972518657127,-2111.178009230767,1926.1280991996173,2813.287758478109,2778.6963996732156
3019.5208968458574,3441.6819289921295,3338.816506408726,3434.0647564828214,-3924.217246759994,1681.793188664822,3006.005592336456,3072.314578239537
2997.6175242695317,3460.9965327834725,3344.8192603191346,3379.65881494126,-5086.907583244289,1552.6320602062078,3035.0271490675077,3130.8268621553543
2189.3219717865995,2507.246421913849,2419.7091426055995,2431.402512649942,-4896.5435425126025,1173.0687556894263,2285.312514212779,2354.593595456321
2292.242758418515,2530.4201500438176,2458.3841913970828,2494.9260155254924,-3575.926123004954,1557.4905650713954,2395.607001121396,2343.8330930799384
1754.5292022923695,1825.734632811782,1782.0621851416836,1814.3876598287625,-1596.6759287734785,1566.675452474905,1852.2616851657294,1693.1502858458734
2127.3339968018536,2244.946230891599,2184.6005717805383,2238.6546645552135,532.6669378612678,2131.058750997594,2204.5169590422447,1933.7560666773243
2663.2835722465843,2856.91799269038,2835.8281704635447,2868.609466002905,1491.3082487775173,2755.706230901682,2731.011289366288,2436.027736581844
3368.3346540508546,3672.4054707950436,3628.519782087429,3623.2147470365767,155.135921931158,3130.215082898454,3435.6381516001093,3140.508522749751
2820.8903594220224,3035.332215336224,3026.611790690218,2989.4402071052154,-1207.5579355358732,2411.8040164829736,2879.7973609402907,2714.1154109687486
2436.3741416827525,2693.335020871377,2674.7005417978826,2626.79622341873,-2963.4540244954333,1670.9776282959783,2554.7242646461527,2478.8013609868885
2365.289034370321,2685.4368679743297,2637.013055805536,2553.521539968439,-4794.082968467719,1217.9017107350073,2487.8822164726753,2508.1341933595486
2319.5710968207386,2701.513222531823,2631.4616214374787,2499.6465059981256,-5952.321688256747,1007.9092174280449,2457.346295339754,2532.29919143585
1823.554869418359,2110.3959456026123,2108.570149900729,1934.7153395627702,-5689.746923369505,791.2567677938273,2040.216572503663,2040.9317334891011
1582.8533287288956,1739.3017474391027,1774.3715202338317,1610.5774623238976,-4421.979551455981,990.6588173580012,1797.1610868802845,1717.1254572488924
1477.2395799545156,1498.130876840095,1579.8337876499093,1440.9905082683126,-2453.379964431326,1461.9534901313348,1632.386661557105,1497.0277042970652
932.6686712986175,853.7422809397049,914.9960858313648,797.9566810207307,-386.458085525177,1409.9312839921172,1080.8627655986033,885.5426911285533
1368.4393405141564,1357.7943591712901,1376.7960245000804,1291.3926249970918,1449.2030063557104,1887.5716146654947,1439.9432391601117,1234.8809972368244
1904.1582043034505,2002.2385250819225,1971.2777707132227,1966.158746220388,1512.897429013472,2133.9377375258755,1952.286258029335,1762.4646066048163
2303.937846495892,2481.1533037720656,2482.2862481249194,2515.0802878782706,-425.51886512560304,2125.5558593910027,2373.6955599116286,2249.859285671537
2013.3746220527682,2235.3360083911994,2278.330332241396,2372.724781155317,-2289.987597417603,1527.0808442822427,2166.4323270866385,2087.23392738974
2564.990992594383,2937.086088342079,2965.8549517508727,2998.8492048387525,-4030.132352511464,1509.5407446004865,2748.9898080789226,2711.1590526061927
2664.5618761938968,3093.141550522065,3079.8617632524565,2956.1410308913037,-5014.716709780085,1337.5963138543757,2821.4896230986287,2881.58892430197
3565.987692567447,4123.469542900959,4048.467096825647,3853.74679297697,-4788.917595119812,1933.3201333945199,3815.638136353866,3727.8244935610783
3235.6198108722274,3573.2894365944558,3541.622114400685,3357.093253624462,-3534.7675700016334,2096.65967989365,3472.7409999702213,3347.5964010886837
3266.1933931436542,3530.9703587202785,3523.4262180675723,3385.9091119079894,-1459.078971926836,2630.8075577404725,3451.9859578457945,3262.828765847491
3285.610304537033,3546.735088635738,3535.2507365091988,3427.504143054626,721.2392283203226,3023.0455201730256,3484.195295987891,3182.5799350915913
4973.662589077656,5509.284293226607,5442.047248204086,5350.925432376927,1914.9571551730915,4367.825977202676,5144.088300608815,4756.637711751035
5673.21438102406,6290.214993799418,6245.330199059892,6140.8229630920105,1407.5193992041895,4784.074436001512,5865.500582954897,5461.536328223825
5924.777670691132,6655.544102905253,6629.880938771734,6583.846654139277,671.9862121437254,4625.512849380757,6216.543177143554,5829.065322094641
5912.589390878049,6669.681548688794,6672.091443452846,6631.329828414804,-1157.4883113693868,4277.543074727182,6240.40839404225,5991.928484872718
5433.942673011756,6135.452448876029,6106.944331205916,6042.513198563727,-2994.4447087406224,3611.757649827465,5814.536123260768,5633.405878826779
4092.0159624669614,4591.751893223292,4525.541350659667,4409.676628871166,-4072.2436629398,2673.013526459559,4479.1973527185255,4441.753790418334
3866.0145919105125,4378.570271698729,4261.934160695106,4121.873465093202,-3834.404184013707,2500.759238107268,4262.7332749468915,4170.696488337431
4408.020950772625,4913.378749065683,4832.363586672931,4702.151973614309,-2489.536563649628,3246.7031307100115,4832.160804648214,4615.095104794913
4175.055945931439,4589.523986329776,4525.963025785604,4428.4667902852525,-519.0848096850386,3590.2238652902743,4562.6456640676915,4270.180711343506
3888.7228381179884,4189.942474228446,4139.738921839962,4023.9128548983863,1568.6181718321604,3727.23542098255,4194.135402308108,3878.5806205408735
4143.488431981314,4486.683543924562,4427.822629600327,4307.737710348272,3164.7475603714556,4038.837126436236,4396.147754918828,4074.5945204648597
4581.079380780735,4994.89626505741,4860.64204906649,4824.04934121776,3484.857261948913,4200.951079576313,4800.256369071736,4547.507377191403
3889.467909349798,4196.021648232767,4046.6584471856913,3998.3325295223476,1632.7794309723613,3293.406423558554,4130.200045728096,3984.702191021963
3117.455025654359,3388.1951386657747,3269.6735340758023,3204.703537563706,-347.2589910122406,2283.8849108469294,3384.5916279313096,3378.5697942490515
2422.051763284835,2699.071010101339,2576.3074300677254,2512.7412531155423,-2123.496987744962,1419.250824677627,2697.483829110366,2794.17713857528
2506.5681037530157,2821.7269640854356,2680.791829117632,2626.595605503564,-3153.91717693134,1374.4742054546223,2765.3219569244393,2889.3219366087433
2510.8051987982763,2815.018214871001,2687.925120231055,2645.033916313405,-2904.88291326951,1484.4921879648318,2823.7629578231426,2846.302565164253
3668.3926783282077,4091.321300872689,3952.0649797826336,3931.3735169845895,-1325.592186148002,2627.573828515262,3985.371414693611,3857.2427458405436
3355.3266395040846,3658.972633418409,3542.5196503482002,3480.0893337321613,1490.8883395468001,2848.3702944160177,3692.2510659778345,3468.2287190773495
3439.9785130567616,3701.8478764296888,3606.0616738246026,3532.0599617755797,3798.2720255564054,3268.1546691298136,3775.789459562162,3458.4678134235437
3022.6751420605287,3245.0232716829196,3172.7649975582026,3056.361476459322,4631.78782592342,3168.931602837649,3343.4234340480616,3066.967207394555
3091.4669532323023,3377.2188277493406,3330.334858998438,3227.6197110332723,4437.2964219293135,3125.1581261249667,3398.243798219133,3136.4784655348194
2733.168007522414,2997.1926896160294,3005.430129839937,2915.3207742158556,4018.7306285223312,2584.2212454879773,3031.045263973705,2907.49045365199
2859.5977685895487,3238.602295694087,3206.9134192533675,3144.2838965187257,2165.30297298354,2186.2344352261716,3230.374365901356,3109.587196099441
2189.7345481501834,2508.5468017444655,2472.0720636278274,2358.994558182254,347.4087879116705,1308.2559015817678,2574.1386617881653,2591.675852977525
1984.6203944845474,2303.429478624341,2195.4086999118153,2078.055104762665,-790.1999190308852,1030.9072682709084,2314.779618865883,2449.8374282881705
1607.3357045351877,1810.5049353798095,1724.0949756474874,1626.4169411095208,-686.5607103454386,937.7224138918973,1912.49899234419,1992.8799664727412
1749.7889651992882,1921.7795773116231,1856.8450952376006,1812.6128720980196,828.9920338977317,1293.7122178692225,2100.890514626488,2018.2785103631904
1304.1943979583739,1339.5336653316044,1336.8117249816423,1321.7657454669534,2850.432486910395,1450.0920701074647,1676.0247768097033,1492.2496480389818
1489.4179792957148,1532.5108293583326,1523.8247415267106,1513.8573279929988,4894.10232413435,1928.4780023831845,1834.9945347942412,1569.6304436981154
1592.7349249927502,1644.529683400673,1624.9324410168338,1539.2654892602586,6328.843913413257,2138.70032622476,1906.2408996011363,1646.5263930494548
1023.5157183603151,1056.0455480102974,1053.5178261467372,937.4845211914799,6326.087166922331,1509.2400082549284,1360.9765979044314,1113.854393965099
1363.0180084582244,1483.0684957297053,1481.553465365083,1359.268879862153,4671.536634693515,1331.3158910382044,1637.5562275068078,1495.6561696259305
1333.54650636093,1516.6446052909596,1541.057649733295,1452.4356336469937,2773.1484720050103,907.2831972338754,1757.8890979569405,1614.8841211804538
1214.5412501991668,1451.320261716959,1487.5428035769146,1419.4132575008553,934.5002587958625,554.6900561093062,1773.79377165818,1618.7252132031717
524.0792507258011,722.4910487854213,710.637046355987,575.1471773828962,-67.22420295326447,-79.80172473084531,1212.4123229231627,1039.3745675207756
588.5835313457937,720.9561362334643,638.398729236098,451.9203764598642,116.62041405696073,-23.4774546847475,1177.9027211967623,1014.9205965953879
197.11526829298236,147.22872509920853,135.96607471760944,-22.428836116130697,1502.5338368376397,125.20310911850538,660.1284167682752,524.0857324505923
492.94717954235966,476.26975504122674,457.10269754295587,341.56838377332315,3572.5895408996475,751.4488025531027,713.8118600456801,666.3456743448623
-69.38336840565898,-201.5930487133155,-176.77784292935394,-307.53840925669647,5523.014816622734,725.8079894809052,80.31711874896428,30.15765638195444
-690.9947382253013,-948.9785812192422,-897.4033695914841,-1021.3636853946082,5772.528354541513,504.9412364020536,-717.6806957627123,-614.0082957632258
-1538.988847915869,-1883.0811999144498,-1816.876001960889,-1907.1632508139592,4326.800308700718,-236.9006746873929,-1514.6674011939904,-1361.800923714618
-1008.984300508484,-1180.4569492086011,-1096.7228083789814,-1146.5697939511447,2738.6033071458123,-328.1258034154016,-691.7359162848152,-726.2413025241985
-1114.3135431530245,-1250.8186396794918,-1147.6716008431977,-1200.196987873176,742.6666842046209,-877.3385053249949,-693.3842493056436,-745.6171186329157
-795.3144498154288,-779.44057862513,-725.7861539806763,-806.89170884958,-1003.5140381960452,-1098.1325667451893,-351.1030805131886,-385.0651741787151
-388.59488761588,-261.1711968310992,-264.6743219816708,-405.08397677665926,-2004.0651761542863,-941.7239266320685,-71.77440681049484,25.06597699219128
767.2153898388497,1042.3743084532034,1038.8931205815752,926.2783848277468,-1562.8594736193882,49.08017377871147,906.602655826282,1042.7111900430464
888.0154835476133,1075.7202709618432,1112.1356232472754,963.3421187708445,-135.52359942348676,471.4450923280674,913.8835619904858,1036.1803017000493
1282.197239110741,1440.8140003541484,1473.0137865846918,1316.1804565620841,1933.826606801463,1184.2432896798127,1285.9722060828644,1279.9037888261664
887.3814646148821,944.3210422745033,979.3097537556605,766.6372577488364,4036.0716707320016,1250.5941831628297,984.8383809557417,854.1994606191001
761.2019632669981,858.6564742187038,867.5074552316219,652.1795831591007,5431.328505107029,1313.5383840135037,897.9231994523725,764.1150573480118
-420.8670028417255,-529.3777388314484,-488.6824089542206,-713.6271237418696,4449.287608334678,409.1266672031197,-334.84555740031647,-319.2822053556738
-849.8751243698935,-941.7563320552581,-924.2438699241029,-1075.0082414572244,2644.0029641211004,-372.98715838821954,-742.4613629324303,-714.0362150311703
-1087.7874804054445,-1131.243488386419,-1089.915876518353,-1246.714012565557,589.8436751113804,-982.7277784655016,-964.0997686472256,-841.1501720297092
-1315.238394311862,-1297.6132780016924,-1203.7105092457496,-1319.6517955005693,-1803.344194109277,-1470.0224592660961,-1146.4694548235275,-970.4590836419375
-1733.659667966771,-1712.1574519807473,-1560.0276207725983,-1640.3523219276976,-2862.6851083455476,-1766.8531894239277,-1504.1420100000105,-1308.2998475373315
-2614.998142200755,-2776.0575152005185,-2586.9995664312155,-2659.8430646268534,-2529.7443745010087,-2148.5527579057816,-2362.993228828738,-2142.4591696468124
-3203.7177145011374,-3540.2139375340485,-3367.293184355425,-3459.6177951270656,-1227.9389581370333,-2286.618902876551,-2935.347638496023,-2823.856663026003
-2470.890572927892,-2738.488988851226,-2628.457165444299,-2737.1502488150145,835.2943596159766,-1407.0152057692176,-2272.9853392181976,-2288.794967783557
-2438.4669689345465,-2747.254573875107,-2644.890017078171,-2767.8553258177417,2768.971350173437,-1135.0288098333258,-2329.525748443848,-2380.126729483134
-2284.629128538014,-2588.492049432971,-2511.690364136506,-2623.916784001398,2276.121404710593,-903.6244409056671,-2245.1541587173124,-2276.49771030141
-1573.5080647059222,-1787.7432934219833,-1788.1815106144059,-1888.7394504366675,448.5616905638799,-619.8380413311825,-1509.3586629597703,-1521.5653846023924
-2301.3350788736134,-2596.968520741968,-2570.488553137053,-2647.4886672752327,-913.9763686999304,-1520.1154053355276,-2233.5999896598805,-2133.0841554807557
-2310.84513308185,-2530.8585888786765,-2433.766833162168,-2508.2909227665514,-2702.614201433282,-1922.3004118921817,-2235.5593810803402,-2022.0301438669412
-2972.247939179011,-3199.8551636195625,-3073.4655020001373,-3155.497745476576,-4466.093074697098,-2694.7955228324863,-2813.6967965325894,-2557.642820430774
-3331.4439222914225,-3540.678737182505,-3433.0243493562302,-3560.3987233128137,-5304.3977097540865,-3021.8358225588745,-3135.008031999896,-2870.589170961437
-3352.445957649834,-3569.3420529309224,-3471.333780420231,-3594.9197282316163,-4994.044150694291,-2916.1811015184358,-3203.096375928333,-2955.2867514575337
-2217.9457027458993,-2332.7995499407116,-2250.3581778171792,-2328.3109738101775,-3488.3953512492644,-1783.4165423754894,-2116.3844071601925,-2001.713544564962
-2629.7164215388766,-2905.343541552269,-2815.443602260202,-2922.8141764789616,-1416.9847267338246,-1603.7755086642283,-2595.581414099637,-2503.5599136780947
-1984.221022625672,-2155.4443012197007,-2082.0573427737836,-2194.736611909844,648.4299946400752,-870.0036472098145,-1937.3405563157867,-2020.3473586569453
-1710.6134628290747,-1836.9020823333994,-1774.9403405264602,-1916.8198756990314,2169.5766881763175,-483.7508847184363,-1723.8387079936801,-1746.51351871909
-1982.0124701762397,-2163.334685213573,-2102.757908469168,-2199.886580139908,2212.80913071516,-824.6402221720928,-1998.145506272529,-1965.8505180542852
-2872.7608223183634,-3124.7218377324316,-2994.743715495846,-3071.326642703847,1383.5106504510327,-1821.3278177003085,-2885.8021823299205,-2707.1698687097523
-2427.110507448102,-2503.0414071395644,-2386.8366908803437,-2443.999449673298,-268.99051888109807,-1977.3935096879286,-2434.088996136852,-2179.816679545125
-2544.491795601454,-2603.000342413681,-2501.479641452461,-2618.096440987021,-2740.5359460715504,-2392.6646521313232,-2503.5768790067086,-2188.094536902354
-2339.14913143545,-2256.73278778416,-2174.788457312534,-2270.737468157531,-3600.614277292164,-2333.8156896125583,-2186.8412710074917,-1947.103193681207
-2568.7305983822735,-2581.5329542090185,-2438.296063764341,-2541.619026101165,-3276.010745613279,-2304.244861551706,-2383.4831851999625,-2215.0275218711467
-2575.569053397732,-2687.9780469252146,-2554.6101342518523,-2671.2420944355836,-1817.0102216505293,-2011.6856939221761,-2425.3754920160864,-2335.7306557206466
-3029.9587638180674,-3305.1500626959023,-3152.6801516724954,-3284.5314602183353,199.07252731182052,-1898.4018717219442,-2905.627632916614,-2904.2687204777903
-3601.1263094080787,-4001.1962004177185,-3796.847269251448,-3928.8695999846823,2409.876401120444,-1959.2823388419492,-3522.433027484527,-3561.95419825922
-4789.76545752972,-5346.828398275116,-5096.90662018134,-5295.889046805052,4661.660133213739,-2750.486213652228,-4762.405333724761,-4709.967111088263
-5197.389530478307,-5745.97894124937,-5530.519204479031,-5771.120640104942,4844.794703139249,-3352.313397063699,-5186.1506941837,-5077.219404883988
-5382.152761195219,-5944.252802039453,-5691.264759847356,-5922.384215195692,2865.5714757890237,-3881.5874065012977,-5402.884081024764,-5185.976480996935
-5128.1333567689435,-5541.169901244255,-5328.644313100092,-5549.344336901559,457.13300502653186,-4186.241218113682,-5129.79435383169,-4845.461431000913
-4665.366029154793,-4904.3541513767195,-4679.203587293181,-4883.568206966687,-1264.3312972712554,-4137.092644277625,-4605.210770669408,-4271.818533072983
-4443.7485627789865,-4590.524769943535,-4385.724932484962,-4608.746878771999,-2024.997282654122,-4084.264121617787,-4347.085990472922,-4058.6472781613265
-3221.66688277934,-3223.97471769042,-3040.3950336531925,-3287.938629692122,-1597.6166245133068,-3072.779601120448,-3103.6786395422387,-2934.6770588783547
-3293.199517548048,-3442.03252942198,-3279.540058595405,-3545.470527214282,-120.21963754247554,-2855.1561042349495,-3199.875161834556,-3077.788042734741
-3439.0495093240606,-3693.615194457816,-3482.2971081252836,-3722.6370558933486,1924.1130093116958,-2506.312610297806,-3375.2188534630914,-3327.6647095036096
-3248.041086566591,-3532.912071550396,-3344.848673820008,-3524.868025047246,3986.5441834627163,-1983.2080652794393,-3263.362850287427,-3285.8873123267113
-3079.16356637422,-3358.2627694105613,-3229.195689605658,-3428.0248292159376,5492.763609386204,-1737.5191480617614,-3174.1387983989916,-3167.6130270881768
-4064.720054166617,-4511.53870069074,-4366.333266607129,-4556.9389642002425,4921.047611481998,-2534.09915604486,-4213.928178592505,-4026.013239106156
-3705.3097657824474,-3999.799509112894,-3887.4033738498365,-4017.999962578684,3779.7129101788105,-2802.334329525518,-3821.683513520402,-3616.005117771172
-3710.013464559932,-3897.987485356123,-3769.3485779790135,-3904.1115200946224,1594.8283853376797,-3273.246959934204,-3734.9433132284357,-3508.622071734033
-3448.5242601433965,-3508.7186367870927,-3352.9731690389453,-3452.001615674657,-222.4832495640112,-3382.337870173207,-3408.5015039912687,-3151.698079783433
-3459.820681452591,-3541.5691198820095,-3437.6394387298096,-3578.9129581292327,-1129.2364331727367,-3430.9329548088754,-3413.070555150087,-3038.2514257424664
-3679.3921879618683,-3863.3060241941603,-3729.1244129338156,-3850.572551174422,-645.6606393434977,-3305.7690263267414,-3638.9160730455988,-3322.2692856424583
-4300.322768059907,-4659.5303158432835,-4430.489796146405,-4594.042577999862,1133.8060232986609,-3180.3917619637014,-4308.946742464925,-4084.0014109543026
-4475.7518902794545,-4879.562336803736,-4649.962702186305,-4845.387703900994,3414.5166812410735,-3046.8284300464147,-4581.018044947605,-4403.337630991846
-4593.260305290527,-5063.325357281765,-4859.088658351231,-5120.079781594248,5321.073027920538,-2972.9164644266275,-4709.829561732058,-4589.086659103562
-3274.5428911529284,-3483.4748094497527,-3374.222983830036,-3642.5511800908253,4402.52497996957,-2076.054755201564,-3359.4790732049705,-3310.2701153814073
-3644.8046815498474,-3926.1961690989997,-3708.9700046186827,-4036.426477639323,2857.7162724384725,-2430.895379959776,-3737.1838291557656,-3649.405215092286
-4182.215415410867,-4493.744195429115,-4231.025841389165,-4545.465715167997,822.1553077315621,-3249.051397494978,-4286.97520701539,-4094.078388389505
-3733.3474937644914,-3930.2788658388,-3692.1340248057277,-3959.745320025653,-1451.8661797166023,-3327.3904856465474,-3810.5356975421937,-3502.2134983211863
-3891.3936836139947,-4007.3421256335514,-3743.773486867536,-4021.6709942094203,-3112.5268184804445,-3758.1307046882066,-3874.3927816776722,-3565.0111907186465
-3842.097772716119,-3918.4420841524625,-3629.608872521134,-3911.746966741648,-3797.816954301117,-3702.6914190642874,-3821.215904948247,-3522.7439402734453
-3666.5088103795933,-3783.2465500418148,-3495.2256037569277,-3734.7249055197826,-3356.341537401702,-3314.645842127,-3664.698214646649,-3401.9892847315896
-3162.0558366929436,-3292.0185192849676,-3001.814128280308,-3216.8853468848138,-1761.2637739535312,-2569.160937186778,-3154.2753940563452,-3013.8329931028748
