-2018.2444117863033,-1810.7263578613943,-1312.790690207413,-2064.73336045707,-18451.791198608382,-2379.8832743152016,-1140.8010190555503,-1350.7215253509548
-3130.07041407792,-2592.8919118235904,-1991.4101806186757,-3554.0812270265355,-15506.109049598515,-3591.1246980578817,-2567.1520560967156,-2867.469594049995
-3113.455602909731,-2492.9142132168554,-1935.0746403200733,-3536.804345462978,-12638.688162464256,-3424.0855427356637,-2584.966071181673,-2987.076841268283
-3484.7266481763127,-2662.717208634208,-2115.3497641055583,-3934.3328872820057,-10740.241091281918,-3806.370228598864,-3136.9898458944426,-3552.531869049659
-4378.024843612344,-3491.3833283860513,-3189.6833385230175,-5287.361804535789,-11088.662311453569,-5174.156787736969,-4125.174898403411,-4379.612097616346
-5409.276894513545,-4490.307926627871,-3909.3808162988644,-6020.835787551514,-12640.116159364901,-6037.932718957498,-5140.0670229838015,-5475.650601482055
-5565.797371531076,-4711.39963949559,-4054.3617403417556,-5848.546680619267,-15025.201589291944,-6128.709719013459,-5160.705940397394,-5459.297184440809
-5161.097571250841,-4503.450115961641,-3911.336577447728,-5346.376517038185,-17182.019411121102,-5796.24608778895,-4648.8879091142735,-4808.041093995529
-5199.5483297779465,-4588.88542054523,-4080.230077441127,-5482.356715721791,-18107.15360104294,-5917.446068516227,-4620.766190883627,-4741.041515749086
-5348.410681271911,-4682.757477317609,-4165.32571369881,-5644.400710668917,-17368.702615925373,-5993.027939244486,-4736.369614019008,-4916.700547959044
-5536.215292953188,-4785.013305448701,-4229.950908030933,-6000.815824749414,-15302.062832905736,-6121.967174882768,-5002.772939815084,-5267.705025992371
-5515.4950514099255,-4638.408532853864,-4080.841596822145,-6194.50281072528,-12392.059079184168,-6020.819210732159,-5150.874030574923,-5503.864838051937
-6114.956547314519,-5094.8303455907735,-4497.890429792933,-7016.000374941606,-9622.895773514378,-6565.278405040335,-5837.353195288502,-6334.672649836983
-6045.752273393227,-4931.3320096440875,-4381.993266823178,-6821.528186683689,-7922.774570161913,-6361.6669320973015,-5834.684099541359,-6334.869775592815
-5949.069045623459,-4842.625885513757,-4286.759278894504,-6523.602784204675,-7796.390227213997,-6256.02684704127,-5742.313559781578,-6175.566723230797
-5360.538612556833,-4439.465142646783,-3873.1240865211294,-5552.663816865184,-9352.515501893882,-5602.771094358861,-5004.5510111110125,-5386.243925520277
-4614.201702354781,-3910.2334938151616,-3400.2737658306214,-4529.987869412347,-11797.070851587632,-4861.894992583038,-4127.860420006866,-4393.519598552361
-4212.471692988562,-3661.446203680898,-3177.6086115825237,-4011.154903771472,-14109.682317001338,-4561.290994400362,-3692.2924735719716,-3832.67602066978
-3387.595113238276,-2972.60447748797,-2558.5876021659424,-3070.905684058889,-15126.831633637834,-3702.3297531100106,-2745.0687177965738,-2805.820371598078
-3227.812041105033,-2830.373756452871,-2437.8906019302813,-3048.6803044695844,-14556.57828089397,-3514.656771860886,-2580.3382905815524,-2676.5966776095156
-4239.352978432726,-3642.039824549778,-3188.2154467014334,-4494.980901013056,-12423.815461906546,-4560.288267039126,-3759.4211519501696,-3978.6882752877573
-3558.8540444236132,-2921.419998944999,-2469.4413120252575,-3724.1595789642597,-9441.124746696907,-3654.4806833568728,-3051.02534725274,-3347.6716680906684
-2923.4888881722145,-2247.1821193992364,-1844.8872358327208,-3163.5209761517326,-6545.89889043296,-2886.9299244023714,-2499.587372803275,-2826.275411701892
-2865.3027620282664,-2126.4419145711145,-1703.7388650664216,-3104.8282909784175,-4824.179014863796,-2750.22022796901,-2519.818328297828,-2848.447610374482
-2511.4110842258524,-1853.9369903318584,-1435.8753032017266,-2594.9217276551353,-4937.510773433081,-2354.184008995304,-2173.0749956913933,-2445.8150020733447
-2944.2714414339716,-2298.8904294482636,-1871.4848839260376,-3037.227716123947,-6708.922694454202,-2976.4372877033456,-2710.7319296448113,-2903.0110230927094
-4279.576767755949,-3535.560714123334,-3008.1548236952804,-4520.48414148757,-9292.651124806085,-4613.59217962189,-4144.196305357793,-4282.437028086439
-4487.035476098958,-3830.4196771482675,-3296.3485460377997,-4534.038376232595,-11910.040929919574,-4902.695724603414,-4214.935128412879,-4301.46969309276
-3646.4829621375975,-3135.5352074536204,-2748.35828728239,-3517.7426158276794,-13832.168001827784,-3976.799602032872,-3254.4690479107812,-3283.6401063404337
-2095.4440725787863,-2016.3500039170176,-2092.1513076200063,-1617.609387983277,-13352.76391022047,-2726.7397158295207,-1970.0555989111017,-2050.8810884913255
-220.1691937202704,-689.848063403726,-1280.5554553121183,-215.84920505841728,-11848.590114815452,-967.1348405962053,-351.7612765142403,-378.2496270875854
-1384.1291027512489,-1255.7358029395837,-1566.610780302639,-1598.1503640014562,-8594.366748157656,-1606.0509043566417,-1455.0848218038009,-1414.6170871728827
-1492.0930699414166,-1574.8431391347985,-2238.6559999366436,-2209.189056185889,-5996.526935376809,-2038.6007102650474,-2089.947672790382,-1836.4036136337672
-3251.19143527883,-2527.953722108592,-2605.437749573248,-3767.412875155336,-4349.025759326352,-3440.387828425475,-3443.563435888078,-3860.506021010224
-4685.258125978115,-3747.23939739709,-3574.024136658103,-4743.674207007018,-4300.850348384411,-5046.724478133983,-4920.287403216105,-5468.198809889713
-5033.72475276058,-4342.823522047242,-4028.141092858714,-4991.091307999915,-6409.204035681731,-5651.1159689743945,-5444.724446753564,-5825.717565359431
-4229.622834521026,-4496.0550694424455,-4203.280997159018,-4135.41921802549,-9586.949434041802,-5787.181109373429,-5468.439434093569,-5381.508745802188
-5580.802129587188,-4842.716215894616,-4439.129890509794,-5635.721982514486,-11084.009793050122,-6015.10284795874,-5518.921283793286,-5677.76463298389
-5440.178454780922,-4599.053719112169,-4253.819856749833,-5447.901452487975,-12127.088558419957,-5750.14085368003,-5114.515074085066,-5199.592160093802
-4988.415676580276,-4187.44987166184,-3941.074669616719,-5102.755249303009,-11521.793433005456,-5250.580789300468,-4595.011384784593,-4685.536747972947
-5503.454243113985,-4596.852868566493,-4287.224376961123,-5905.1725029242225,-9532.647585616563,-5768.961482347397,-5214.194570742635,-5431.752096015029
-5172.913083075575,-4201.212722239026,-3816.7648020288907,-5646.880327945866,-6800.336211778282,-5550.400397816702,-5372.933814220334,-5260.1621049020905
-4552.359993900871,-3563.8178732552915,-3172.806109475321,-5068.21752740012,-4033.3002252847655,-4671.287641614443,-4660.412840093311,-4580.247294062574
-3613.7052455581143,-2636.3393648657366,-2345.4698595031223,-3813.3151135210937,-2017.29219432018,-3245.4164083518554,-3211.6816819376836,-3585.593259293877
-2963.043608973443,-2155.285810156318,-1974.8967787553265,-3026.8259312651353,-1983.7216844054055,-2592.0770987607248,-2590.453535856883,-2952.054455273814
-2061.2590894348104,-1529.7089928435453,-1324.5313148226996,-1807.6378795899218,-3607.1579001770588,-1629.8135782809695,-1538.4819769377646,-1796.1373842015164
-279.9040593576501,-186.31780556510785,33.52466416457901,462.5878103450232,-5984.025220641401,256.500965815736,548.627805668948,403.2385704246408
2627.720067013288,2219.295314916788,2326.1114997680124,3971.6571060077986,-8321.084654293954,3390.0448502076033,3810.931743493944,3881.776740984962
3082.779895476997,2753.6722763290454,2719.261033918214,4181.044549803017,-9464.209215254057,3711.733949754853,4128.987644254259,4253.2197473716515
1556.2060301848687,1450.4644402470149,1642.5577665373567,2133.2075608663145,-9117.83216036344,1872.19131426682,2310.756420360034,2339.507950057712
1829.5691963316349,1752.4023278012173,1907.4052614913671,2303.2698921652627,-7175.64344442822,2200.3969058303046,2582.3840704244794,2569.087008359318
217.13933833892224,677.7676671464287,777.9687886256143,-7.941095090267481,-4384.327046895749,383.27997712549404,438.8924416512018,360.8822762396012
-3117.7480738440063,-2115.7147701202484,-1822.7487826685247,-4097.04475037189,-1846.7505333398585,-3258.6864831997955,-3389.8367929842498,-3652.7758638365194
-5214.571026922611,-3871.9039884959348,-3336.540352437645,-6375.145113494364,-229.2292107679532,-5399.485856088868,-5533.802100469824,-6038.330039076856
-7536.511975056928,-5878.272544477717,-5141.904157518147,-8412.68730586677,-269.66103422944434,-7908.676538626954,-7949.442824399681,-8489.68852432011
-8369.541165357863,-6876.202894646587,-5984.947935734497,-8986.02718341432,-2012.491992541356,-8762.302753762691,-8714.092353856307,-9204.10134060544
-8509.513582437066,-7176.055938962207,-6306.333250782016,-9172.978412722761,-4414.300620466762,-8926.730389992037,-8694.401423582138,-9071.685746675706
-7655.728501392121,-6531.990533383534,-5860.111027874722,-7935.230960003944,-7139.005151632824,-8020.488767429109,-7610.178654446121,-7887.406702236534
-5899.144227855868,-5093.4676560936205,-4617.195159705763,-5863.879307239607,-8953.447972867056,-6020.377551634592,-5495.007075580186,-5699.72108621744
-4458.604058233002,-3814.482307983126,-3520.6293086938385,-4390.663439026597,-8563.417289203615,-4404.626219255297,-4039.0546666579903,-4163.7338032479165
-4782.57175187493,-4067.719293153379,-3763.744397305418,-4991.189101578668,-6557.9110021201195,-4724.9443967274565,-4447.393380938593,-4678.953387829795
-2800.7478446395253,-2733.3530012029805,-2813.0826452269102,-2862.5158273540437,-3609.968020811095,-3144.222590407502,-3171.4578896241146,-3303.8743810369924
-1301.858918826154,-2712.2448192248994,-4269.830586193799,-2076.997560396965,-919.7365603920771,-3742.586602506228,-4334.875681985985,-3661.9901673718996
-6436.5476861965435,-5530.3497869267885,-5744.3699526268465,-7488.945007263508,257.3438244028948,-7257.030101507291,-7566.486177328363,-7857.799337755569
-5465.157168817706,-4913.538978207245,-5729.323755982419,-6330.52948894666,-785.9944908942562,-6643.360224538832,-6749.510697673395,-6977.193461945193
-7545.283064005926,-6246.478425421345,-5778.171731056209,-7943.685184335685,-1165.8631448575761,-7556.748901128827,-7625.350305123604,-8061.9460582161555
-6894.917650247167,-5773.7155245959875,-5407.031866001926,-6764.477832252858,-3684.623850405682,-6935.220554490166,-6881.774425194948,-7161.121061557904
-7814.705288060184,-6613.798591757659,-6132.778293793119,-8334.043776527338,-6092.907253778074,-8035.18918425194,-7779.713504279935,-7984.538947923458
-9556.132936206064,-8054.715685835836,-7508.921059283981,-10567.661940626625,-8073.401199259097,-10049.374285140366,-9776.558370759245,-9970.132297103759
-11850.87992612546,-10054.822330597555,-9425.718984973442,-13153.139964938164,-7612.123965243576,-12614.174005408771,-12324.126331787556,-12686.952151590143
-11164.574393220886,-9765.554277793533,-9290.918266933935,-11783.797793593723,-5618.5572776043555,-12162.335613351315,-11909.992000404745,-12265.561004729418
-9795.724746032036,-8277.868609787547,-7590.882183196722,-10266.52376472525,-2620.6734539450845,-9898.030278979219,-9811.750428626663,-10319.606763322023
-5972.188252602355,-4894.4861178967985,-4484.944357679167,-5550.831892545393,257.75089445651975,-5577.412297297909,-5661.140538993932,-6115.972586620715
-5013.6743969765375,-3891.8825170540367,-3341.357146008959,-4551.095054104284,2064.4547232376644,-4550.593803339172,-4828.186847466568,-5298.113534697914
-4977.286914522992,-3885.449153294903,-3183.857243930601,-4964.201885075541,2062.490390696912,-4301.78301024955,-4649.4119232852245,-5098.451682613464
-3834.602884489519,-3562.0517844728893,-3071.2062774242077,-3155.691896967939,-77.74560220038984,-4012.6620458025136,-4323.223112515581,-4358.740462931397
-4104.6610113849165,-3526.781409420888,-3050.972557514964,-3646.322752792912,-2391.985721578938,-3817.0640280182124,-3947.2405437671696,-4081.225482494745
-4457.7607347148005,-3714.0333693674183,-3293.042136277334,-4372.131480868789,-4537.217489616247,-4090.222193845315,-4014.2284220095607,-4229.117225780676
-5334.995884400385,-4549.07386404532,-4055.9542173773225,-5450.273417200835,-5906.406682847068,-5138.229904880747,-4806.517070987786,-5017.069401724148
-5124.136888165434,-4287.3131701961975,-3851.113302054,-5244.673648658907,-5383.937423276133,-4890.72263481369,-4598.968425366504,-4760.352167357283
-5214.656573507877,-4362.139888510865,-3869.8567626010627,-5456.056192910357,-3396.352171430015,-4959.776084237732,-4765.548726796114,-5011.652396533755
-2059.8026642790064,-1705.0789147964679,-1368.400276503642,-1740.4472703257343,-540.9832536550239,-1370.887492314272,-1338.3724017009954,-1583.9313509492786
341.5951183345169,220.58485142787686,364.75304685591254,1167.3530888613896,2238.6841583669884,974.3583665079204,610.9130336500821,585.2061980918515
-188.88427635957487,194.28160216653487,522.9640686171479,492.1398887299001,4067.870688006049,955.2962031805655,413.69424857589183,109.02544295217376
299.7671370060416,359.54171683761524,-47.52933391806437,2677.1828945045127,4721.259532303084,667.1990223798784,-102.28407806105679,13.639961044013035
1038.5629903273075,950.4263950915192,726.3379650349962,3104.020922566473,2842.4964353620308,1713.7191343264421,1231.1694993612473,1232.7245992335374
1746.8121716669993,1605.3969935001805,1676.7885077903047,2969.938645433751,-136.0054087799508,2716.80023272353,2509.4180337890866,2479.0634811531636
10423.577687682991,7523.716808568803,6766.263446048484,12596.03647921799,-1740.1120590294013,11010.673667334602,10901.286694765906,11891.915445974213
15834.086056080821,12072.154171899892,11001.444404156355,18190.31748952507,-2642.343122826889,16519.18559650099,16220.08188096527,17468.675747215224
12557.889610747341,10747.463706546463,10466.0017163601,14726.904390272743,-2659.6868628518423,14224.600335707248,14240.38674077572,14539.11962227663
12768.324038416555,10838.648368174676,9894.038473021646,13125.402875314001,-1199.561651476426,14128.525706679735,13765.403263621207,14413.162486227055
11217.968650768918,9762.92618760033,9534.002810371923,12050.31066276494,1698.8690170001937,12566.659660472767,12219.767839826003,12493.631832363899
10513.695736342692,9364.83402061148,9490.236140125111,11578.07908158697,4595.0967188905925,11878.861195581965,11431.464689083688,11535.142432980007
12198.343537923356,10842.350838739687,10828.402538347727,13874.118222170102,6758.427581986529,13785.234407585987,13328.677802300488,13494.509010219539
15554.155460642069,13525.79538099686,13389.319918932248,18171.443100148666,6467.8765425995225,17157.025674828503,16621.58551112088,16809.305842800823
17183.307249131816,14973.26232700632,14738.95145981951,19996.534168556886,4922.092887240578,19043.298111857526,18480.30881823346,18880.18330543535
18044.634156765096,15582.268451306212,15463.06844182554,20601.988870410132,2388.1279221855802,19806.247685763636,19452.13952576334,19989.07077833687
17502.957593319385,14986.233989995759,14955.504730549641,19790.092645486176,27.53809029853437,18909.61725155983,18715.232275939838,19298.64399231298
16587.856896970887,14180.602839653962,13936.736520610793,18466.903510396223,-1155.9160280274227,17505.2157395932,17422.70064135827,18070.24501276028
14096.458907194203,12149.882624362974,12087.976643578382,15177.206856996665,-1014.0993976353202,14750.879448281106,14711.746549937845,15249.567113759636
8992.920541000523,7916.840576245246,8162.3580281977775,8844.738840403414,665.9951579372864,9091.974326250405,9042.120951508201,9363.242894028168
7867.9504390084185,6987.018376569962,7228.007136482265,7676.8345395419165,3206.827503152541,8053.110946578672,7960.704525821522,8151.219255098491
7677.113484409929,6887.430133877802,7122.9222373175435,7649.684303732618,5842.399235065677,8010.6448424764385,7742.371504466893,7786.150024087372
7370.83889598574,6757.5628227740235,7045.410516023476,7535.976946670955,7521.414516012068,7787.014577395108,7298.119999169285,7244.928244779439
5851.299702961056,5460.179336267567,5927.654356892133,5665.502798539426,7551.063495015143,6169.169677004771,5724.208876158009,5696.271846834206
5138.773390544549,4741.13073465637,5228.605395694045,5334.943736248009,5877.874179537292,5362.940105960646,5005.500172931381,5010.634934700516
4582.233428441963,4119.294664484798,4661.534614732271,5125.082212487323,3141.539568469627,4618.582089782256,4465.745210553476,4487.794420344944
4654.216323033354,4156.295929131782,4528.662267368112,4953.41954875669,783.2087713320507,4667.408954477534,4823.561688665766,5067.7745558630995
4692.851144740693,4099.359825308347,4261.048622933893,4832.67525773056,-604.3521864095237,4595.309159813492,4852.1643438432075,5162.634463854396
3826.088196090859,3349.956935739465,3571.441675517395,3630.088643469222,-424.1218551573111,3700.247601406518,3962.472063566791,4112.495640259833
3134.2212833004887,2747.800112827681,3040.6692100354485,2713.1604388024716,1679.9337975971866,3036.0847300640307,3222.8984484120883,3279.273450033579
3677.8207372763572,3242.979375172479,3525.041984819887,3283.3219210083626,4385.876609733561,3748.769204551427,3719.089297893661,3738.2272193151002
2772.5558814179094,2597.630445900708,3001.5382554477837,2099.411342494903,6862.539318437455,2814.1511750999634,2562.355518384982,2423.8682435368682
2877.804854522663,2743.8495276454923,3160.180192949185,2472.0496445362514,8672.732693330618,3107.547307485118,2746.676443372169,2524.3229423450975
4551.464679467332,4123.275669555282,4341.61270984642,4717.462847352072,8798.84461249871,5011.041951183754,4534.800936768428,4457.389035532964
4677.471181280445,4188.164307852465,4383.202407195538,4791.589182722921,7545.496193192259,5108.250894303594,4646.955288565114,4680.680787183024
3606.446021448035,3202.9442877375986,3383.801728243612,3621.159426931452,5056.905203355302,3802.257621034689,3602.0401985555,3714.306896344453
3349.5930651342933,2874.8501605628917,3086.4742990733866,3528.697415835646,2537.047150248545,3463.4314603210078,3465.835522790352,3679.079742130474
2307.819407391202,2069.3175140646126,2272.6383166660235,2244.5599715495628,1223.2347109285183,2200.637293554755,2354.5502287247655,2584.4022611030377
-97.1254732041707,83.55401050760702,486.96840374144085,-714.2475640736375,1380.0554126466159,-468.8035941227572,-334.7951655668221,-271.86279583982105
-285.92236350665917,-186.12375631840405,253.64195508822377,-838.3699726509221,3509.694605541823,-533.6541388493206,-422.4162225167529,-463.55247919622343
1289.9237313698104,1270.4696402746195,1696.5150225240977,960.2472730334848,6563.049144227174,1429.5312398015813,1298.830337545769,1204.1210105829814
-283.2390896809229,121.09793295945565,599.3027722934312,-1223.9243997194571,8733.992617026728,-275.09535113074526,-704.0381103251857,-854.9758581593996
-5467.1731914501,-4100.400607226882,-3478.651684774093,-7516.465283273181,9965.245992076816,-6045.239376079975,-6609.063208045547,-6886.654524982048
-5905.445091281537,-4663.866657277693,-3983.209130355219,-7459.4169780042575,9784.201705185289,-6323.381825132528,-6633.46023675771,-6955.168934099667
-4700.126080951042,-3789.3099521716795,-3206.6216568192103,-5629.2970063295215,8196.711780407699,-4868.222114736534,-5105.580645930662,-5342.534084479834
-3692.7591354971373,-3127.5797307309113,-2541.5627970323403,-4224.340804325344,5720.988610787841,-3790.0211220567144,-3855.4285300717893,-4050.0263488625787
-1767.604424455043,-1870.876453241508,-1979.3600148981932,-2697.594509541188,2936.788418142416,-2548.109184446992,-3628.9155622268154,-1972.106965348008
1102.484824869316,349.90185281935555,-55.96556661808427,577.0671792386129,2879.5166960875504,407.6154973396333,-829.9076568956225,1530.2809620633052
-1024.7589353581425,-959.1839099809295,-518.162050783918,-1114.2448934566928,4297.9670398693415,-927.7503930890234,-800.7845466557774,-773.0975682259887
-141.09669351713092,-248.39027818851173,-441.1480802873921,97.94759806850925,6245.843310401018,-204.19429061464325,-323.253318434261,-174.12202737318876
1093.9103965361282,954.3918634212023,-212.09600426033285,2045.214951950431,8980.008739600424,776.0093571724137,229.04275785005302,512.8142277258448
-1448.974492870213,-855.917554950327,-554.6868691960917,-2130.5172770929203,11495.682834782812,-1348.1930416602117,-1711.300581437201,-1998.5184643397079
-3802.4760311436403,-2722.674898122321,-2305.700774762139,-4935.31887710841,12933.933551302296,-3865.81259204667,-4442.96614343104,-4834.0528760651505
3.4585731536353705,-382.91842487521353,-2861.4673465774467,-1810.1275428632798,12652.551485549426,-1144.073510477916,-3006.5626691240323,-1666.630515052122
-745.2105465703353,-1412.27839483328,-4269.066046252701,-2537.468658188838,10936.443106147344,-1851.661880087413,-3545.9769087954774,-2234.3746326784894
-4351.200053646011,-4140.832778731885,-4545.374308372673,-5079.539241201142,8537.265040660743,-4434.911955852367,-4645.24334374936,-4793.296703074404
-4243.199251360231,-4118.883760596713,-4489.988744098213,-4524.367109839994,6004.57934893301,-4383.208680151249,-4421.758130600152,-4456.237855920466
-2815.0254456991534,-2933.727260057931,-3616.521060559142,-2636.869522550798,4184.569815257448,-3314.026966120553,-3391.212870688658,-2612.0323562055273
-168.65139384272334,-660.4356322718377,-1377.8308218659367,672.3027129820111,4089.5748305848683,-231.88697091628273,-299.6175585485762,294.24957507735235
2477.0959244274854,1589.6450467787217,847.8343652877957,3788.288968064444,5892.216730622167,2874.809935305093,2667.9419843889045,2868.31371510365
3721.6224099263636,2967.3289203945606,2376.7039921031683,4222.123656667391,8891.770309254644,4629.235189171188,4253.198545167485,4231.010695647987
3806.9700065983343,3254.781323536721,2587.109729487027,4166.768650401631,11613.351932733203,4673.01104235246,4054.100098285242,4007.1293114723376
4417.1334745910135,3909.2747133703087,3188.9633772377347,4776.672099528616,13212.358251046506,5368.464615823585,4587.950173716483,4580.151658999675
3427.48826032714,3139.1312377273134,2509.062525548703,3338.1780715629284,13060.81884816353,4189.437335019931,3421.7865906352527,3421.0147947566875
2008.4111832224298,1806.5937636978924,1258.2269938503887,1727.2646817698987,11164.71070045064,2482.4767641917133,1838.261606453656,1823.5386966735823
897.2821879631374,756.5412864329701,295.34641891834326,710.6055493028689,8436.133208030311,1136.1085387089406,763.0890966495353,845.1544147096283
539.7679645357421,339.09930509827973,-82.3229675853654,503.79067696846323,5963.893028277496,656.4769511393824,502.1143875850248,696.3120018616755
-388.70700360932096,-462.51304278470343,-828.4614533378335,-673.6758525637124,4954.5921777560725,-477.08660932870407,-504.8769650478498,-347.7831799001433
-1088.0671137909085,-984.9655229131313,-1486.189855538163,-1482.9004345684953,5507.722783142526,-1257.6367520804488,-1243.384531128264,-1111.199343857923
3003.9135601141897,2875.096272684954,-39.39689887516579,2547.753884918173,7836.800239748292,3075.6516758278012,2058.0559886902774,2033.9015813543956
5431.413506591314,4901.664844268613,697.5353712746291,4484.66110344464,11762.226775229647,4687.263695336529,3057.9835052996787,3217.404341161091
886.5644448190142,722.9942440034356,58.16141470964794,256.76509681939206,16026.924726299389,1223.693694019661,508.7780259352003,424.96115227305563
-1287.1766046220582,-921.3824446037615,-1064.6766216431715,-2118.3861408403463,17734.857320510753,-842.5038216966641,-1656.615804582354,-1919.3437754303013
-3336.6506452498143,-2648.168296893651,-2730.7526720088645,-4043.0295475392923,17551.00344891718,-3146.970410974114,-3885.2055778207578,-4182.175383315451
127.43179108093318,-159.3481673776114,-1224.327499775005,686.5154994809127,16121.217392997234,104.58754158222291,-743.6634212615172,-735.7250123949198
3786.1365908089792,1796.5085538953863,-1478.8349560735878,95.06005269201705,12832.257469679258,2218.290055274454,801.1560067043902,1270.5944902215851
-2235.7337317123747,-2288.944329001737,-2953.909153548215,-3136.385146654502,10253.729282382265,-2519.762795200935,-2708.8506735642877,-2796.6110704340244
-1617.6284580884821,-1722.3425104490452,-2058.1629523637966,-1570.5977529633528,9059.056716225401,-1497.1432994007046,-1362.06152997131,-1505.0970674666314
1906.4646417093027,1296.9938800833042,748.949913097822,2607.1459583306278,9352.214698320779,2444.8793577127362,2480.425105480361,2403.082126281297
2082.931057950671,1383.5725314673473,644.5722549239872,1786.343257553308,11421.951024902883,2192.3110929406394,1919.601895682179,1957.3829924684687
3562.1966537588887,2251.1536527188437,950.5607175030891,2823.859794759337,14506.492921501282,3152.5196649333375,2368.1314900491707,2741.6207421998115
15601.989505272388,9233.074463993253,3358.0250118293916,16034.613453596161,18760.980026573554,10854.51482713448,8895.744596810517,11077.206931132125
18140.98269478068,10682.507522605694,4956.90248517866,19927.634150244732,21150.592301426266,12134.292952823489,10441.992986024583,12889.911826130956
2994.5823529201734,2574.857874420508,1945.2189384198791,2587.898908471354,18240.840305618454,3239.992790036973,1881.2779580998176,2332.0898683402484
762.7784151622327,841.1261262105254,353.9953929272815,469.29416137249063,16371.101889964135,1256.8653000735212,411.0761702840973,407.4832849895902
2659.028096389069,2221.504503273318,1714.4972413381256,3125.0024052657755,14088.410601995198,3337.4318002704167,2841.856740230178,2950.9322623512126
6494.272205652414,5319.812551156909,4718.287611739448,7766.784392045309,11666.497603531432,7571.161110675697,7273.079408256104,7565.8925535165035
7003.865973613119,5784.925757536395,5158.259593098308,8013.20991560143,9538.879273111219,7923.48296745574,7642.221356027832,7976.06557956148
5541.453625941191,4638.180303463847,4118.116463722807,5996.197488700625,9123.249060415399,6145.2841829946665,5923.602614410818,6205.512576103552
5872.594746896488,4880.276950171738,4389.389404545633,6349.412462151078,10959.158658550847,6582.299018092166,6356.024772844641,6501.591562241421
6991.1819420252905,6043.957148039157,5497.328818261165,7917.590783018719,14241.98535736931,7877.870615159227,7426.7245560226365,7515.555158685951
9460.496735105047,7907.128166663932,6805.677749511266,9578.624531037702,16867.25288223633,10069.486903447923,9130.707478518025,9336.61193112563
13659.861646784204,10863.159044312695,7996.175682870957,12524.185707477745,18291.795640013188,13499.442237608415,11801.944980060885,12525.92827631094
10174.9814971011,8947.9202864545,8532.249962304086,10932.494036233147,17994.79788779562,11363.33302274385,10646.420905430488,10768.74524512282
10804.073373541185,9375.355383615237,9054.000367330296,11749.236349104816,16464.538858554573,12003.921801055225,11437.042898196014,11618.413312513218
10264.882668673163,8802.248434001343,8498.85628840066,10988.80243385581,13787.49937278466,11140.21196761962,10729.404555118876,11004.34125598145
8958.490218726583,7645.5754760598975,7389.939437497391,9453.579908123465,10570.9733956134,9488.404488645414,9268.578318430802,9605.592670975464
8273.354230830693,7118.193472536615,6845.218283808681,8580.922684928679,8110.284868073242,8613.535279029267,8537.638132613545,8920.391079788322
5715.406974257603,5080.868538150695,5134.582032969793,5684.107088365439,8317.67351182294,5963.738850833848,5877.351573786524,6117.14887669521
3307.061683370048,3083.2201891099103,3339.9585247741816,2842.320579282794,10077.88256603197,3484.0576293744816,3319.458827438655,3400.248793672479
2766.9794332938764,2592.3894322315027,3063.8399205133464,2219.418181217843,13352.272969552258,2954.8288847858785,2766.339383416438,2644.259239598294
5039.454443559036,4483.160840778619,4625.682633111435,4997.744862242471,15887.413926098467,5407.557589711025,5076.69965548344,5032.142842712798
6905.926729275976,5934.4326205840625,5293.520010173539,7367.896443803431,17635.097984362073,6833.101946743787,6356.779894505169,6550.753843806946
4844.0128015848895,4458.781232067529,4329.2890828976815,5071.815930627141,17641.273984244588,5093.63285914743,4305.283899707982,4517.980073709376
3422.044047152609,3238.5988331066474,3451.8434324648188,3231.7289870717796,15615.791970550315,3753.8372652703547,3094.037856750263,3109.0189293055155
2860.307194247216,2664.0550658678985,2804.1896293708487,2682.1501413878286,12932.106243858521,3012.579925297192,2638.0300313109037,2724.6916008197586
2176.483578553787,1897.723544836961,2058.911326827343,1971.5297060687444,10221.365858278703,2172.2908336450346,2132.0440949118783,2259.0346294246847
2410.074244840478,2099.166940694675,2170.62399138364,2212.385728425419,7423.931946276891,2281.2994967662817,2254.264121866552,2651.607214943637
1365.2138248632546,1238.680577096995,1369.5020001292214,916.555480706942,7612.69155428966,1130.5805017691891,1065.83349000616,1410.8445763717173
449.5125066575856,429.44006234900735,701.9943835934973,-173.77778133976972,9589.649260362086,370.86365657924034,389.2622402145498,364.2677712100849
1618.0171809430467,1489.411613332035,1641.6313161667276,1196.0104101214965,12236.080097622296,1859.8553888159076,1681.7557168359199,1613.0557768833678
2881.8801097256364,2631.465500175589,2719.92921332072,2585.1318028860696,14795.15915561543,3345.5022936776804,2890.391909644997,2814.1471503923094
4520.624319586728,4072.4043419728696,4080.5643610752886,4540.744660192984,16608.499790953938,5263.456018997589,4705.528235486825,4598.858302439505
6694.390900965373,5942.940053858809,5846.377944724518,7133.070278347863,16998.91900207149,7623.968792495798,7035.642088997498,7076.179734814577
7394.130222932377,6491.874476335259,6423.829358812669,8020.463329688559,15262.564683641482,8313.897910436077,7726.265643432125,7820.380444866096
7280.0294764107675,6282.741595981992,6263.969373388201,7956.270799420294,13028.68524011923,8029.553151365471,7610.084793975722,7765.415746564453
6694.1280767779535,5740.967545698048,5724.306500410268,7336.227267851864,10221.640543677902,7219.64579071381,7004.172202670976,7267.189047471707
6850.575628326187,5983.1349583321135,5737.298730461596,7390.960313947056,6786.209242657002,7309.999293050612,7194.56527606587,7648.3300799417775
5049.191215378611,4429.422572292504,4315.715741720531,4957.166922592907,6282.152338854503,5206.67652667471,5049.1002284030255,5353.483408404485
7436.173254500818,6354.546331985874,6398.882045337138,7547.772649884113,-2235.4819306954496,7079.99722972726,7693.75402960622,8080.987483260263
6603.067559089346,5912.009695936844,5894.261882668102,6357.0891316266025,286.64047399066,6258.094266814753,6632.745887482435,7050.450544095357
5971.562599802179,5293.805081077899,5474.545201371959,5668.309633989977,3163.8006096889385,5690.555909231047,5990.0894702312,6157.954482307094
5500.521929855167,5066.257908640335,5250.850303065094,5200.165288925582,4940.340394892333,5271.118742282291,5402.299191538867,5524.2537050473475
4718.41765853365,4491.231713517711,4629.808823360068,4421.936042962923,4771.828578543621,4440.607953231043,4556.013691944518,4698.138563099103
5021.817774154642,4996.42528335235,4644.672127276906,5029.244268317674,4347.180007221372,4792.600939605709,4831.521873724665,5238.92035281588
7824.459383541245,6802.357792013554,6776.790005177478,8797.80464730395,2357.1177961152916,7839.914119093395,8324.19132375798,8789.847000879206
9269.75615396638,7691.822804771698,7640.496624561063,10600.861739735454,-325.26564395921014,9259.195508212302,9740.43945972812,10332.771339268205
8027.414768640265,6624.845092382617,6405.36963499507,9229.561818002832,-2083.6974864088043,7648.079041027573,8144.252272135476,8934.241426848275
5407.208559805251,4501.889321446579,4743.34483368467,5656.794849918901,-415.84505050507505,4918.599568362923,5570.167079580358,6010.291691486142
4570.860949850103,3789.839630528666,4137.444522403435,4650.413164482277,2819.6033990649885,4122.196528667962,4777.6578098178,5057.52048515185
4079.6845127795386,3478.007029814624,3892.2186018897264,3982.2928189282393,5613.110879304808,3686.6643308185303,4198.458583734493,4351.959803282312
3602.549547045637,3191.0551445028977,3582.734896700058,3352.250118146054,8179.779009777278,3306.6935655326815,3655.7832034562307,3692.686234948633
3849.1394473172404,3408.322609353854,3516.4322337251942,3678.1635484054714,10226.951930084193,3361.7441353278555,3479.367583240659,3565.882887269123
4265.645578531214,3623.2319179213955,3525.309516112422,4415.735247938093,9733.244760560585,3447.3522546640306,3348.9153785650415,3571.4597256986162
2482.4459509838052,2288.6592276405863,2779.5024266869586,2463.12485056711,6910.954875998155,2223.536762951422,2424.7769545988704,2453.53182792601
1372.3353438813938,1313.3428519550944,1737.3120603738062,1245.473437619643,4174.129886023649,947.5740262310719,1265.1841519216105,1391.451983679508
1802.3619451415434,1550.3464363661042,1895.8981010827556,1977.3488978899113,790.5326686980115,1411.1640216908272,1991.9517546162388,2226.0873531744437
4782.673900598791,4152.4302074410225,4212.706918546377,5460.980077405562,-4646.353663320035,4668.0650667838345,5438.607402780297,5839.747187878296
4233.349377293649,3632.9717327319086,3868.3196906304656,4542.553240477733,-6204.265384182509,3942.015832234858,4608.045042031066,4861.129526698554
3311.645454675425,2843.624410254706,3229.022233650947,3391.6265764569835,-4474.715933884021,2973.290180197175,3632.1570320383325,3746.0884669771476
4209.0187429822545,3741.935349605468,4114.950517246936,4295.477040673766,-1605.6140498378445,4116.018592824257,4578.36306456312,4627.781338854431
3434.0068998386996,3212.088181145038,3630.6166288259265,3177.997800621626,1040.1625644631422,3317.664461645967,3555.8082242095115,3520.1831415664783
2313.9493386261165,2467.2461149075098,2811.3785642525763,1763.4739653120196,2963.5841282028196,2114.5986545421765,2247.576530610386,2183.2654300749855
1560.7760471162765,1750.9937318343727,1956.39974820122,857.2402370507334,2836.363104829048,1209.1563396857673,1360.2417549928796,1280.3835562247405
1502.1538100557082,1433.9879646408663,1675.988388117199,1182.8314833238983,1018.253172919518,1087.9400238918315,1412.5310806290072,1370.0572226538352
635.4379545318661,711.2481821087131,978.6482736710459,343.0373805322306,-1447.3984315024281,58.338537668576464,529.4298242655932,500.18126880194177
272.5855908168887,332.967872723224,627.6022534581862,328.92666760370776,-3982.3404644192124,-175.2937751376303,464.3081711056293,519.9766328757396
-456.8359072308813,-368.9194380861445,4.615817694546422,-546.3905205458868,-6127.578770099317,-965.7094711001846,-188.55846170519362,-120.27941547479713
-1380.0647670996113,-1134.1970030341035,-720.136085726961,-1765.1282747936057,-6284.584708150855,-1929.6132173583464,-1218.1388646157575,-1201.1277492255904
-957.7207024808886,-842.9857227337052,-424.5402141755767,-1234.7043533927645,-4164.756681261555,-1311.4314110184205,-598.4322548283671,-678.2239268120466
-386.4973637894582,-211.67216182862467,127.39352441571828,-703.614530911218,-1159.0315704943205,-634.3183287180436,-257.7421596412605,-451.67387904049247
-3653.804575625196,-2796.22271842153,-2219.0355469938077,-4717.583527054376,1277.5961450300492,-4201.127450713975,-3968.465328393344,-4368.530953049805
-3037.781965751652,-2247.377521860166,-1682.7774128611636,-3788.8593128983775,3162.6463893150976,-3279.625636130164,-3078.32680908966,-3399.1277336501225
5.743267560203094,397.4340963406139,739.1867918773496,-26.87203894944105,3322.2734593930727,215.99889299966162,393.10885328272707,199.92266573432426
-179.709909958372,137.75294918974396,574.0612629914249,-243.02380761728273,2065.347395787525,-95.37980495535885,97.56762009186787,-104.37720127483772
996.7229944329738,982.2341120550118,1425.77827270556,1475.1050660684123,583.0274091176107,1161.2712638629164,1496.5591228692356,1463.3530363472819
1895.6366138360609,1650.9618402923224,2179.4522253803443,2562.421059086104,-1892.8578012482103,2029.2481395513314,2462.122771348935,2541.7708007680776
1145.0834994044853,1012.5937167026277,1511.855307640857,1414.925380477216,-3831.872704217996,1044.5910246341373,1614.3158173971024,1737.327148754237
144.03387228923384,197.79135618748842,679.9696214176365,99.16900103109947,-3579.5889387645475,-107.35317484120606,565.4680592777586,647.8341919054219
373.40791309895576,361.03546971760807,559.0767596588412,242.09647730755387,-1965.1692317104244,-77.77188739042322,544.9791004371655,695.6132123331627
10837.18862987269,8401.506994129784,5589.759577840814,12859.935032713576,-128.59163753272514,7274.618506034822,7468.803044762753,9777.710201386319
7554.40926530963,6557.5114753611415,4636.632078892246,8799.8881887858,3218.700584859558,6360.781218753225,6308.519828017903,7127.600109150022
3345.166880043631,3380.2906412539887,3118.2691636941163,3395.574587230338,5562.114442946717,3723.101536496557,3567.4932449180924,3444.386959320138
4545.377720620105,4631.121759340516,4102.583871080627,4906.492589068686,5673.81561599487,5099.384496008221,4874.970032002631,4990.886393645575
7061.912032660126,6433.361383114956,5936.0463740161795,7912.221055796079,4140.981086042491,7771.947750632957,7590.807435883791,7826.618742586405
7357.61136326025,6478.796261221374,5034.580775304668,6717.26082014048,913.1032632344068,7766.13293109386,7044.82770872832,8071.672277851059
5543.082288535574,4644.8500166826125,4269.351371448109,5620.50018478671,-1317.6261010698072,5726.743517427851,5820.4101159203565,6341.391974960512
3188.650463491591,2590.1204260411614,2729.3640197702334,3354.3048085374467,-1664.257985954995,3080.0757322873687,3571.9029131817224,3812.4922271143005
2990.238693062711,2523.0567490720714,2587.6599264943507,3143.889812775422,-419.71116453799186,2915.240744783863,3464.796315709362,3717.834808865533
3013.377600784239,2605.943343728024,2666.154407241498,3003.5768872967456,1426.1272465306101,3009.6269882371125,3417.1756805190234,3581.9017442648765
2622.6712369843444,2243.70757451377,2547.774205917027,2409.5707033485814,3957.2146188225815,2609.97237184149,2873.4130856184056,2845.7086493815295
1902.4549949901702,1772.0914167296141,2164.9685276549426,1449.447210012906,6416.624166249101,1878.870056229236,1906.3966413423768,1831.0160825753119
2312.2140406095714,2264.41023457158,2671.7732839251985,2062.414111172984,8155.842815390293,2522.044056149258,2381.924377911666,2298.044127458008
3143.0755899073265,2950.028418975504,3321.943284691224,3200.8789361790696,8292.169633951577,3493.1465517027245,3340.9452131366706,3278.524608104519
3954.7767774763925,3580.511920013203,3924.1786879299034,4346.1688255344925,6585.429674416882,4420.285562501696,4335.827730213263,4373.4848932200985
4288.878350300452,3725.5589980895747,3884.6463174444507,5206.159139444004,3261.494591826282,4540.135277124413,4531.968415909418,4710.945022558648
3834.3581748271827,3137.996295596153,3226.306369267055,5066.884996076464,170.71166669741797,3810.8995060137822,3927.3923385062662,4063.3794235386886
4028.65555307272,3400.4549154468696,3498.1805495608132,4608.488734092098,-2675.4192932985025,4050.202829603397,4518.85732863273,4810.500978933618
4714.188806588529,4020.1422061902704,4044.484335189045,5206.653121004027,-3760.20128869958,4768.497836565162,5285.05719001987,5569.889751707378
5075.433525711764,4278.07232996673,4181.640949145512,5769.1713536071475,-2359.973837526588,5092.518205246364,5435.377567517891,5767.272620485688
5989.671105630463,5243.160205211345,5265.9601270456915,6487.664861364785,648.4030168013414,6284.775066152099,6404.182181418029,6630.3240781422355
3855.7406120236847,3877.5065447318484,3919.104172703228,3431.5027688439295,3769.523789305982,4057.284247396572,3880.8704314177157,3979.9904912957572
2042.2113615544513,2442.650940512831,2573.7061369361763,1703.3706869981543,5051.8102985190635,2134.8309012337704,1833.9166824397107,1909.4879100607359
1964.6234288340784,2235.9525287943543,2498.7703453347203,1643.8551260108943,4890.575317466748,2134.418510828924,1847.3514812052308,1881.577781083528
2074.932574800623,2050.486113126448,2526.9812670075917,1946.5751168147544,3661.707076789695,2195.8145182554144,2074.031952515157,2071.1597306838667
2706.909856925311,2131.348355556518,2226.0490595703013,3126.6371544924914,1363.918681259791,2290.7195019263017,2197.6120196336997,2648.3328344207257
2108.780711111205,1705.2950369536993,1863.202103756863,2353.420699855342,-857.6719988376135,1881.6115849529451,2100.1101789404056,2391.4995647382457
1794.5180175925489,1563.027173456503,1783.7447828159493,1825.292875271989,-3135.12793330985,1593.6934540481889,2064.027982943895,2293.7801352420647
-606.2152195226226,-499.31461732345633,-48.706101580522954,-1185.716586176597,-3823.267576366721,-1093.8767809255223,-550.7262269831263,-510.82123255194165
-784.8451230636856,-672.6329061485012,-281.66824846624513,-1329.8137325515563,-2180.40612225153,-1137.8656239044794,-638.9887382728339,-668.1176076558186
-1475.743213322683,-1072.1514349353674,-721.5166480211483,-2219.6627268330485,591.585096876559,-1746.8030427050835,-1537.1520706607844,-1625.910578820185
-1057.783947042335,-517.1585486863623,-440.8649598129268,-1575.7390407673083,3024.2258177341428,-1079.9227038814279,-1150.7080140191829,-1200.032728050428
-1659.2480302703334,-1010.3596123389434,-876.7255930475076,-2294.580022154172,5235.277350203876,-1686.2324053234188,-1872.2110523653391,-2079.728856195463
-1007.8691113757086,-561.4218259836198,-384.7625761157542,-1405.9544203934202,5452.7000444971345,-915.0603335018095,-988.224871495273,-1166.530581732717
447.89017380864243,517.7155437365291,759.0615227244853,629.4849090821808,3815.5823727082607,741.4850747617893,713.6378904750163,559.3769898719038
301.535654938285,327.0614545926219,598.795585952932,609.5921846112178,1224.7478075788677,478.65171584449126,613.468450840388,477.1205156579672
-1509.6688049820368,-1120.4459722946049,-882.3137042406306,-1528.5209320478316,-1806.4250513115257,-1690.540889064665,-1452.8942758832127,-1546.519710762339
-2870.906846708269,-2226.929939088237,-2091.9697308378236,-3143.8422049621295,-5348.945368289031,-3261.982141697983,-2892.243725614215,-2890.5802682565118
-4089.0412886177073,-3412.2138283824315,-3430.61984663413,-3281.6557927981776,-5415.129076311598,-4752.802630082733,-4334.539795938559,-4225.224977845792
-8329.028531668155,-6916.76422242471,-6678.859773979464,-9620.123248928488,-3614.760340782348,-9321.586400587752,-9059.46110963868,-9227.960367396823
-10197.824248890189,-8603.00700787452,-8071.519746857433,-12167.674500190653,-1194.6513098264986,-11132.327972501982,-10959.568909198133,-11384.204756663268
-10890.57260358578,-9150.233183806704,-8520.394316419028,-12806.215945415926,1341.886404463061,-11631.811828254897,-11553.84048614258,-12140.29986934486
-10814.38391849157,-8890.555882506771,-8336.43661293431,-12506.692620464804,3003.235393741925,-11354.597253181448,-11431.628849176224,-12021.392981212062
-11030.7548567185,-9123.961201281054,-8568.328303882183,-12449.29030013812,3085.108417759853,-11466.900887370226,-11546.440621067042,-12159.426180398325
-9603.928589048795,-8114.803579348285,-7599.535096789012,-10368.605387233372,1734.965285709579,-9750.244695820962,-9817.323792530573,-10402.545038476732
-8769.207198162505,-7516.695403288701,-7050.51022860207,-9297.820786171418,-806.949908141949,-8951.491005991484,-8768.932922493928,-9229.867554370168
-6903.968122098595,-6049.076942391082,-5749.2981836456165,-7006.598766860829,-3416.681182097338,-6938.570514577761,-6548.81041590363,-6837.390353545925
-5049.415128914625,-4551.773133120718,-4373.496200316906,-4896.204486502116,-5698.045909274762,-4960.189161327216,-4449.258717520483,-4645.316116274014
-2912.402205260427,-2671.081707051475,-2638.467362269963,-2647.5052837239054,-6133.874857451534,-2634.330108266149,-2257.1896215830348,-2391.210037343233
-2180.4025080807187,-2596.5328556626337,-3212.0870850411593,-3538.0722942739376,-4463.581416416535,-3167.104175672066,-3126.2768139662367,-2920.522601998644
-6438.325760750988,-5909.809174443784,-6350.046577904446,-8195.211034776221,-1937.4720592988015,-7787.6884017896955,-7951.474731791357,-7933.423613699328
-8441.578838153539,-7278.37698788858,-7538.414330681073,-9359.062048647247,1289.5636949469044,-9194.337424309633,-9566.440221721205,-9697.03555373552
-9364.638477426546,-8722.109523540043,-9237.710169152706,-9692.210408016545,3094.7894464372366,-11302.94272200785,-12075.449570595054,-12081.615238180952
-12880.751940173708,-10685.139399701075,-10279.394881108514,-14165.259094558336,2728.4951883123285,-13410.303202400974,-13701.468442543846,-14309.703900704248
-15219.471787909992,-12662.789074993489,-12141.955541696458,-16754.1224672522,455.49202735158906,-15853.367827938891,-15998.163404157021,-16637.479537713894
-14894.86403963613,-12545.594026412655,-12023.038397718425,-16063.02327996953,-3281.6290493591805,-15359.30961694863,-15261.956199010237,-15908.233483522978
-14212.420044134713,-12188.887644701921,-11821.129073572694,-15138.001780441591,-7101.0110554913845,-14673.956417609432,-14322.014472187242,-14903.43480625494
-9644.470856380518,-8353.35188995277,-8579.039620076808,-9365.022465479808,-10004.272505838948,-9587.735618099083,-9116.380208155595,-9400.082654180485
-3806.2138868631337,-3422.356994966409,-3994.53816536683,-2663.234434124286,-10916.547577948055,-3062.9916833869047,-2711.2221744952076,-2822.6831694405046
-2555.228637270993,-2356.203015890147,-2823.1197085163512,-1903.8860225270182,-9317.978145749068,-1737.9091681475875,-1600.6759707321435,-1867.9471283496823
-2198.2948940217902,-1653.6056768590315,-2413.667696193952,-1992.6448583358815,-6433.493319022491,-1382.1071645636302,-1552.7689035323892,-1644.9109343391901
-4548.100239281215,-3368.8271271696176,-4096.216125331928,-4947.840205161092,-3807.32029627456,-4064.994497945904,-4436.951589617951,-4672.065491206653
-6274.101073888818,-4928.759263907028,-5214.96396433733,-6837.814480410987,-2035.9632109222948,-5951.526364240234,-6285.266382558648,-6875.786470710023
-6018.482427473693,-4756.332439666396,-5012.832139528564,-6203.842290820457,-1834.802439961226,-5562.354210907207,-5852.135413530333,-6501.759433539804
-5167.340875603806,-4131.410506800403,-4335.4633604644005,-5099.332299210466,-3484.0927772439827,-4590.457872646084,-4863.470947528857,-5378.436283559089
-6106.921365775609,-5017.6675994615325,-5123.746108753538,-6056.285283060277,-5995.311813308283,-5745.984734923168,-5879.720014219392,-6284.794922795663
-5697.8354091051715,-4981.254801384007,-5075.703363324901,-5481.039735806036,-8538.651926085911,-5308.256507583283,-5164.024720673569,-5485.816104223406
-1599.9086410328446,-1740.1387895650428,-2160.968509480941,242.41827506861955,-9873.8067255058,-931.6531525754581,-661.7225542813685,-768.1685700500948
2915.956797328993,2130.634456191828,1316.6839090584617,6322.792626492004,-9275.646735604825,3789.369062489055,3945.9597369732883,3995.6918857030832
2183.9350068644007,1759.4134391411953,1321.3961187951172,3116.1395092406874,-8007.349850628312,3191.438051809342,3214.4643863272536,3115.351682945557
1394.6921990246792,1225.0373992672976,907.3940571552139,1817.6390175726083,-5347.394637888414,2303.176054732732,2092.791043725533,1945.4525806354754
2380.8310396659235,2165.3859849072123,1802.8794340205422,2854.9598957824037,-2376.129953359916,3477.016877224345,3053.622904789941,2912.191659920618
4488.2508857235225,4033.910133385514,3561.0280342529295,5408.000394795068,-352.5577423275972,5890.587431683103,5298.384123726209,5192.729114810381
8579.198018912268,7441.857634716673,6711.754876664007,10365.446619357572,-179.88468392580762,10418.350929309454,9747.116806427852,9850.469043432928
8079.861587387133,7004.472827051239,6522.178925981709,9579.785996662356,-1731.8789387921643,9620.396932012356,8910.50183680419,8982.303797763663
5493.220171508488,4701.696460148007,4527.4651394989705,6470.362870808105,-4322.856947819477,6526.668919093745,6000.65651770086,6030.1402852219835
2776.24063022665,2254.8416975249347,2254.1598591012953,3264.7784276588754,-6979.3500202715,3321.729081875288,3062.1846490270254,3094.4743386761256
1969.3318518220694,1495.0608595151716,1367.7810587704153,2240.4832824018595,-9228.431033364555,2319.0079134418665,2389.0587409220825,2476.970810041501
3122.3357244849103,2466.6148124589017,2024.124980884706,3640.0086739940743,-9366.014693277342,3450.8811974499404,3525.477652718233,3808.225239714593
6586.833209154342,5350.057727808198,4845.54304767002,7770.162545156039,-7408.315820110751,7512.438486652907,7566.630277042765,7753.901259199236
9291.948126008756,7712.021715457609,7167.801734102155,10616.398692248331,-4763.078236367146,10616.484453528861,10417.13234022029,10554.383780374592
10003.329724176016,8564.885807943225,8014.105923085663,11119.114285586053,-2020.7656555359426,11357.450601812365,10885.208317678618,11038.546848888232
7944.943096028845,6923.228132158401,6634.086929741716,8629.07272966532,-474.9254233253887,8974.57526670603,8266.042584889787,8244.965588698993
3916.678395392839,3567.270901127078,3548.098331451678,4456.961665962124,-367.27920561014616,4353.702758916304,3618.7050326713943,3463.182854178478
2494.536732342138,2397.531777253942,2534.987579019158,2593.810484679154,-459.68150840223825,2953.7455950576987,2472.568682540834,2357.895341266907
3131.860738092495,2673.6001442238776,2731.442424081746,3552.5013760709553,-1936.1543535370292,3635.0460034373973,3363.2346315939067,3435.69392162023
3037.4789992677397,2518.289248789093,2450.163803656702,3521.2779751661874,-4501.928651005292,3443.807045306312,3269.3975867911213,3574.6701745261526
3777.070257990199,2930.172172954073,2913.3137414318626,4382.447709724118,-6156.443783899886,4175.868777548909,4179.994221764544,4413.573957160246
4363.495691639997,3380.3469762132445,3294.8102054675983,5005.952667635895,-5880.628204858658,4814.624189614231,4867.570397314776,5029.906298971997
4723.946386269192,3926.391898083617,3571.239632472032,5082.25958051419,-3979.650636858496,5239.039259823767,5142.123539350578,5360.264143009001
3122.296497369578,2718.5162072061794,2276.8671558095957,2873.2661113643408,-1163.493141603234,3326.1309067293478,2769.2691687709303,2979.0653434728447
4472.436633840523,3019.4894373328716,-103.95936093678756,5019.470264054165,1932.0925499485602,1834.916666575431,54.39803152803506,2131.011161585775
3272.1063347787713,141.55878232260875,-4968.025047247691,1874.8109753887984,3575.7886090682296,-1955.703673796117,-4688.044576290689,-1252.7477448666323
-7918.297087572297,-7049.738470821583,-6910.706750161902,-9403.536465747413,3073.8981742530887,-9036.171565372308,-9776.60244019705,-9959.523281133923
-7776.98871539293,-6742.40883185569,-6116.779275252455,-8607.951637839971,1834.4776270528237,-8133.231826352072,-8479.249373407045,-8960.085055508258
-6615.771958058584,-5882.74541374587,-5475.36128953351,-7077.673022350296,-863.5722284088988,-6816.266249039749,-6938.811870492296,-7233.211956984815
-6128.733782809955,-5608.6438593190105,-5191.848896719923,-6505.001808531451,-3614.504140329911,-6355.884332419293,-6293.241643137793,-6576.826023138972
-5318.76991473962,-5011.280123387289,-4690.801485256074,-5496.297958484007,-4772.156114038749,-5473.720290171899,-5241.005622961893,-5472.970247652178
-4584.657317433535,-4396.723765349816,-4280.616618370594,-4923.563084546753,-5363.314629244414,-4693.7778364534315,-4423.642811091289,-4667.113896629075
-4388.46699752799,-4184.764010926345,-4136.174374179696,-4792.0400206504055,-3554.298578886752,-4412.170476521031,-4238.43006058941,-4507.291496461548
-4241.355587030041,-3889.3980819357457,-3829.1502749812207,-4744.081523417779,-800.6173708195274,-4137.311220292715,-4221.8509182400885,-4524.915678589205
-4035.3531396535254,-3577.938563343683,-3496.1371156175883,-4661.532327677756,1899.929332346961,-3801.3709653698825,-4118.648431664762,-4472.648847226817
-5179.404062752321,-4365.981784637959,-4163.074688209228,-6021.9691736121895,3846.874794172676,-4959.846489092968,-5484.478874396882,-5936.945774903703
-5524.775459425466,-4654.642452171131,-4498.862304739567,-6110.852172254032,3914.491875872889,-5246.7812493841375,-5717.287416878426,-6125.0517052996875
-3869.263166122859,-3454.1676669695225,-3266.466516534303,-3952.2381275997686,2445.5108943090454,-3405.5987175998707,-3801.3832048347103,-4208.587267979739
-2582.9924483728682,-2513.4197835878294,-2414.6188008504323,-2303.584372003126,-139.73265063548752,-2067.404678707255,-2317.1612509500264,-2613.156040153124
-1285.838258965996,-1496.8211461120663,-1517.2662388039935,-733.0447979626988,-2751.6493225290033,-766.5015818335269,-854.1978797051452,-999.8054162315821
167.6747711213102,-281.23517523337796,-431.14516458405706,881.4891886550977,-5040.170066293402,743.5704023020626,774.0537176684411,751.9730856119786
58.96258771585417,-310.37654500227654,-396.5447808011959,525.0699897556333,-4785.302500880964,554.4924568075767,526.9666090824976,475.1181425527466
-744.8823412498823,-949.4187628129293,-959.2853781794365,-664.4916764491936,-2958.972593405444,-356.13079274962,-442.2995861796662,-578.5570051097311
-1088.1239272941602,-1119.9177013723092,-1105.7975928599662,-1278.388236022336,-294.75094751259894,-667.9135830194791,-941.9506166715037,-1175.0477564161774
-2128.019836870426,-1862.547927808835,-1772.7543626833394,-2648.0525086167254,2486.364194914364,-1724.3979021840496,-2200.079737425869,-2553.3346913932837
-4192.1644124251325,-3469.7957349279786,-3210.1000459211755,-5029.931549933059,4418.670905178427,-3886.7696917056674,-4488.067936733914,-4988.6405815440085
-3175.019400373334,-2690.4426611973686,-2499.163843200935,-3510.1017499435766,4475.7284617235855,-2638.270622934124,-3175.9906407401977,-3656.4810711910905
-2615.8268956814754,-2224.0032990167965,-2117.6594158637563,-2733.4870383854577,2886.5985298576707,-2071.4742720151535,-2605.826115117303,-2966.6734733578087
-4200.412711782719,-3675.469424540701,-3433.2207711448045,-4453.906686829872,237.7832734772819,-3964.511596025799,-4299.13359259551,-4637.78330625279
-4862.939288543768,-4317.358999825441,-4054.6964972793903,-5093.911401428408,-2655.6211187460867,-4794.992499586049,-4959.047705286588,-5200.87387815363
-5915.078682786112,-5067.874177071749,-5199.623035322509,-6270.209336194137,-3616.9148729509034,-6013.0378519863625,-6089.338089783248,-6200.056609550553
-5688.624468562497,-5138.8086757373785,-5043.443160495252,-5916.922363772151,-2603.373413790774,-5659.367558577188,-5536.8129759928925,-5795.371456264795
-5807.507792648805,-5209.298855466384,-4996.900285944301,-6232.752349146379,-828.591141047189,-5689.71310306045,-5657.64441876934,-6054.144865985243
-7003.261422216829,-6092.79198405741,-5813.936677254608,-7831.567952417001,1587.025830732804,-6885.207435706039,-7088.600384238295,-7625.169569880045
-6435.043223732593,-5514.326864281309,-5228.246438530568,-7101.653150783739,4183.896145935098,-6118.355275795686,-6490.938859643415,-7054.053172886817
-5964.090024068744,-4921.541308971284,-4712.017811828437,-6494.938138006313,6191.300924014227,-5505.836399765987,-6090.412817938635,-6655.981325792876
-5609.729325478351,-4519.87998068225,-4480.139643642466,-6045.540418875884,6163.4872604783595,-5092.540414838797,-5783.110943388361,-6255.418754384093
-6330.218692962062,-5169.439780227127,-5051.195705446851,-6854.015206210199,2246.067366628704,-5992.714652055751,-6523.448177260769,-7029.681865923583
-5011.58694116211,-4709.404269209648,-4804.233813323757,-5526.121273200661,-2512.096545704044,-5156.687602171107,-5645.219114840787,-5547.170369368796
-3460.969501168125,-3783.722040747154,-4060.384439278125,-3743.0014686132927,-5370.333273307624,-3656.998225475647,-4106.582406422633,-3595.4475527616087
-5423.059086211571,-4962.245552656321,-4695.875686546198,-5612.609374650885,-7001.465455791171,-5204.159905136752,-5266.137090641729,-5492.895551293448
-5570.521632249045,-4958.079660075702,-4747.20902108273,-5793.775191669993,-6852.940515365932,-5311.124823341459,-5234.148989656031,-5515.311853559433
-4865.734691332014,-4368.778224397611,-4166.206544794972,-5058.68056647163,-5005.684889231488,-4482.3574854367325,-4387.9203037493935,-4735.109026950129
-3497.4609006807223,-3038.507346094091,-3126.2961844051606,-3586.5209641068213,-2121.294946872542,-2965.9576482761768,-3238.959341396403,-3381.6092811622
-1931.4052635343614,-1597.9413781242183,-1923.431936447123,-1860.4084346671443,607.461303817021,-1202.8608534454106,-1806.109844958497,-1841.2012836588692
-1100.879149375236,-887.1341945096647,-934.4534477972484,-951.5745649657474,2793.7756052673067,-65.87488636669877,-675.3139348787372,-1109.9298283887038
-1180.7110511267092,-877.5900908841286,-880.7508295702646,-1061.250678962213,2882.941907341432,-215.98941022652434,-938.2449187429447,-1336.2449598969106
-1772.4335698885698,-1357.5680555994186,-1339.774689206075,-1613.8468599887274,1308.7728207294858,-951.3220905909257,-1612.232085116295,-1895.0932102248917
-2612.6570778928726,-2111.6690248559025,-2040.1562994071792,-2492.94453105687,-1362.059396252691,-2048.896583511756,-2545.171280180177,-2753.4892154965055
-3473.5367519710126,-3052.445325274879,-2941.505719601999,-3385.4770919424773,-3883.579930510561,-3113.677675539322,-3428.4043783154048,-3667.317373680242
-1963.4556230369344,-1767.3035390356963,-1795.6235651944298,-1452.2783972079196,-5327.6414181322325,-1414.4520971086458,-1574.6867869308917,-1670.5479615184886
-1518.516712707933,-1381.4114054320235,-1315.8483656907629,-1044.4349264697812,-5319.19345736879,-797.5028483527567,-954.740024005383,-1108.8160741843167
-1803.0813516416092,-1696.7410542415455,-1562.8048336132924,-1622.0575212909316,-3621.1060801394196,-1127.4554448620038,-1282.7110244996147,-1540.4930879580206
-1887.4871259909996,-1711.0350646461593,-1535.0723591869173,-2084.4134698439448,-840.0910262144753,-1273.911154646863,-1561.7744827286951,-1921.6162910313578
-2369.114329905482,-2039.253108372941,-1795.6087179066963,-2862.870678002306,1841.7624842898804,-1729.4757307398395,-2176.0319312252395,-2662.215763257671
-2910.527844410957,-2384.355763140891,-2116.3188103195716,-3504.865949709012,3728.2632673434564,-2223.058267037268,-2863.200334395049,-3405.1542344174377
-2253.304892531756,-1801.2063563669217,-1646.4975775168132,-2539.8753879976575,4052.8184640862746,-1458.49233129785,-2132.5059637470113,-2591.3157603550208
-944.259492837984,-768.1344069193729,-702.1189918471064,-797.391227981454,2440.4188727685832,-23.835305187982158,-636.8055820074514,-1010.9984841552941
3412.984829782901,1569.3484348355996,-210.2527551032108,3679.554368158366,169.2207494377799,2168.427108633623,1106.71790523456,2096.5908352730185
7102.947704049278,2573.3338066771976,-1013.4083371232409,6679.011505720904,2713.1649891957786,2744.9911748010636,1027.0148226809106,3376.397022514895
89.35251467116177,-909.892091824775,-1462.6296827753686,673.9117967888596,5879.171577164641,-257.82262574788183,-396.96478963579284,-440.8255354945868
492.52411509001104,-102.71091936161974,-162.5239504292258,1361.5168066910264,8120.190534160734,1161.3388954192196,1104.8116487972875,953.5636998566188
598.0981979625649,141.16834229732922,302.03767847039853,1238.3495130842348,9551.672702555137,1537.859067092024,1388.9769464151614,1183.8487562255468
1379.883751127083,970.6752938478749,1142.4995914523024,1870.5819599385868,11307.1418503842,2435.3766729200142,2047.182040994201,1810.4418731735786
1477.9060882349295,1172.9409675522766,1381.5698698825872,1794.069539844233,13759.39276704246,2580.6183702976123,2017.4124811110232,1678.481016560414
542.5581833620672,552.5201694717252,810.6827490085998,564.6588457444741,15622.086962282927,1527.7115679886629,793.5816132532636,394.96707593032625
-651.1004066754977,-351.1124860939599,-32.76124967097712,-764.7121610156028,15599.999494519408,198.28915896829858,-539.217671189268,-932.3446960402507
-667.9568300452665,-530.3433601944998,-152.18014860191033,-458.8686321357236,14053.83803344073,249.88115701526112,-349.42571360981674,-762.0216236762062
-3.845862098634825,-59.49023575530737,208.64240676185,482.0590305973892,10324.25180167523,876.3430302363704,365.5235593884863,150.89829760264547
-1567.9083604134794,-1369.002488742437,-1385.6597278873523,-1437.9383996697288,6577.1535860859485,-1082.0108103183447,-1458.0439294114913,-1519.8010584536823
-2149.230158573482,-2139.978551828928,-2030.9262243408593,-2048.983368392437,5313.797145739985,-1808.9286005074973,-1954.3237854975014,-2089.462182521689
-580.6542712673836,-843.605324941469,-785.0792970703333,-219.85599633802485,4752.173289720715,-20.182221858398407,-72.95463717126404,-228.18097869478515
1947.5913779023022,1687.0897789607347,1884.4995893020237,2028.4872326173972,1401.352461447098,1523.5635188567044,2310.167296542503,2501.411477045192
1263.5034146748994,1211.9820612421431,1494.8829233238926,1011.9354641324994,3457.089099856985,846.118939005627,1413.469137789451,1519.7785258300974
455.10413164921283,653.122551417785,1024.9664496418964,-0.24297103480012083,6085.111118172795,28.371564522907192,442.6378677539901,416.6947686761491
428.32878053053037,714.82503118775,1150.1331703918868,113.40159095192348,8074.626643795986,158.78363626874216,436.8748453211647,304.42934922654695
2297.764343016281,2275.4307103031024,2349.1397126772226,2551.030856501597,8343.048552997243,2097.694568493065,1992.2433821664026,2066.979176471501
2985.167490929365,2767.587558445459,2814.9162992229158,3379.399828083192,6707.76465889061,2880.05646000415,2968.6582241822416,3122.675377316854
2908.651258224776,2553.86948415396,2720.5259690169096,3315.367304376832,4178.563933502257,2741.3959202424303,3165.387292810894,3387.2236439495755
2487.6980836477287,2103.2387062220587,2250.9076975922253,2885.8854464041415,1850.6225350483146,2197.8786806760254,2780.7070301855383,3071.9315526366427
2910.738133823619,2114.98655376249,2160.050056281296,3963.3675552564946,-1144.595546795652,2155.2028633786285,2844.0361150565077,3251.0669707695342
1500.8786562240457,1260.3825326524384,1508.5248851245633,2005.6154725550077,-1714.613043307836,633.4421143130457,1315.96710245734,1687.5518606869919
59.97489979119564,250.63538259256893,568.0011342451471,-245.91303421234625,-276.3581770031815,-585.7079703372237,160.32899559754514,334.2001249497007
40.65886513943042,227.1344958397458,574.4121803931448,-359.01243984577377,2001.222932816483,-482.3524365131743,152.34680755612862,201.51723761587346
655.4717513814358,814.860841908634,1226.7535112739388,345.0313128775124,4803.8440016351815,357.04113123427487,791.3818326854052,768.4697550684941
606.507233187338,868.5722388383074,1250.969542993451,266.1115096618814,6805.372263378107,430.5668858953595,707.6725170388854,576.2453283996801
706.3824838634719,979.765354754607,1348.8019467881386,518.6459119396641,6975.079344577447,581.3875839501088,827.8483411466259,733.1315937796026
794.6668998357236,953.6912756911042,1312.441430383169,794.5206223635105,6019.256075501624,675.4392337939316,949.2654715069984,891.0292602516747
1244.2612080111357,1264.721747454918,1495.6194619249618,1822.2993696163649,3929.002445694481,1078.9275488885978,1497.578258917747,1614.1587331302508
1181.6401051675566,1170.0726675715014,1194.1692777116077,2301.344650587409,877.9009653478424,776.0998962928497,1394.4926357087606,1721.6789813679316
-304.11688037058775,-172.06280540617445,53.25025539318449,-75.64780534366582,-458.41692822545883,-968.2964162884819,-255.08708989853767,-36.61500860623346
-2496.3188341803325,-2006.2193677000505,-1565.0003000138495,-2790.6428524658295,-497.4140852725686,-3339.762013087515,-2560.2422495477695,-2472.7314370685963
-2750.834460895716,-2310.657522946949,-1802.4212788812838,-3081.1959794154645,890.351418610473,-3451.4268508231326,-2676.7896825454663,-2737.363509350609
-2450.4937017787597,-1950.2711883046177,-1417.3060074940695,-2808.6920042101956,3569.3407519528846,-2988.1958560721077,-2402.8312703602132,-2567.6968405166226
-1563.8822450100197,-1086.73022153288,-651.8057768292965,-1910.8651612623853,6273.4185334896465,-1876.9117077406454,-1525.4901758201886,-1713.2479518219952
-1766.4195103444072,-1213.5036186510897,-883.980783127281,-2436.2080882147,8125.183609020518,-2079.482039888772,-1786.0862571630223,-2024.5051346700493
-1353.6177519845223,-888.8988287003122,-541.5026128309473,-1897.5931827019758,8366.373409736887,-1581.9793212599175,-1288.4275310970424,-1514.3875225444353
-961.3448155124315,-640.0951588046682,-319.796590043632,-1110.1437802695,7310.123817448577,-1100.551632916743,-761.9856945992778,-918.7433191121945
-188.73192893067062,-57.90248025716028,205.56212875300116,-36.541579245656976,4822.009267228612,-331.05427532708046,122.0245891470804,120.7633837078647
724.5848350593915,690.1115155954285,831.3048395812511,1110.0859950163867,1289.8082475851406,541.2854592788512,1136.0723504495581,1317.245943720669
1408.8820838070933,1168.2730218242377,1257.74169321945,1890.6585576405087,-2779.5116891670186,1172.8999441111553,1868.6324882181125,2105.4927648189696
2271.3204915843016,1876.707001623361,1887.8595570587422,2742.104415006532,-3259.5393739355786,2081.675499700482,2689.3133743163016,2967.555408649645
1216.3633398550792,1227.9532094866154,1126.3898010587109,1192.7424232714184,-1645.1307610225922,916.2569776830878,1395.4803191526007,1624.1298808259307
1634.4074509048987,1682.8088107154035,1483.1915939547653,1554.1130133920415,1047.7459283790959,1514.6202168043683,1849.2866499512784,1956.8798774571478
1452.7087629509697,1611.4593682719278,1555.6446175044002,1218.4026650231208,3797.5239593516453,1420.3993822334687,1495.7775836234978,1488.0570355891905
1382.8008068538875,1590.400441156944,1680.4780502853173,1279.5551783603623,5764.483719165903,1451.377468770852,1369.7752434746908,1296.3097629137992
2460.725748204153,2428.7736067045444,2529.252557949694,2715.0056131354977,6107.187484985159,2690.365550530807,2570.3965572817397,2538.2628147183277
2665.6208863596694,2396.6142000861473,2521.3854991318512,3015.004289538396,4452.014444226341,2887.8411008658004,2833.419994952197,2838.3716618212056
3282.932612915083,2856.1119915889285,2819.605996123457,3920.216261965066,1446.483632960968,3497.779748425377,3645.066864406079,3863.3172978002513
4141.607703237045,3676.5888585451066,3431.9660587581457,5007.170004852469,-1637.9150336744788,4300.2813636314095,4632.06344913334,5121.091897189464
4186.443968343148,3502.0362298324035,3483.2409829277385,4728.583791692945,-4007.180283521433,4176.649926809743,4640.931056857917,4981.353675673592
2429.6588758793005,2052.5858510985418,2150.5419159235607,2477.9438252760083,-3888.3755530076305,2149.7748772257182,2612.1448461167092,2889.6262530469903
1867.1596904268663,1542.2919546283156,1683.4966605151203,1815.4553586620823,-1661.938562004827,1636.8784510211917,2166.1330815962137,2291.349358600324
2472.5262323150164,2155.6744769470606,2254.1262783999045,2382.267914296397,1070.9181268387329,2402.1894086219145,2736.7303513276493,2787.3940847836348
1669.5133443300438,1711.5250837648127,1799.3915353905395,1311.6627949063695,3723.854803635986,1603.6045711396655,1669.8862471733664,1689.3297238194355
1015.079532352509,1323.9887611169252,1440.2140391403373,567.7585399519958,5799.93461906728,980.4864829470316,889.8447148981213,876.2697600593165
1016.6962806211013,1200.059035266153,1450.1335289404888,723.7010600716312,5824.415387794856,1027.178995656781,925.1425140667343,853.8342237757533
1310.3856373048839,1410.8566366531304,1710.2050606440316,1284.3925733731448,4364.4059151418915,1336.752570812023,1266.258143099818,1268.1678792992607
1577.3134054064212,1523.637451311537,1693.5117476840242,1759.828591649115,1421.2296991390176,1505.8221227611648,1670.033235108771,1776.6021679685946
3533.258069421412,3074.192897877896,2889.1149668684957,4142.286539327368,-1079.8429166755523,3572.866930017153,3883.586024671189,4266.61682198332
4780.1403938792355,4041.836951304831,3810.0685754772276,5468.094231383911,-3861.3196064178774,4776.635854651548,5204.036020850363,5694.323186452639
2965.8057510640792,2661.776855599608,2571.02173634051,2816.0687377350187,-5510.875867947092,2590.4913005132403,2993.2833527449257,3414.7062727835437
896.6711294408888,923.513115830232,757.5644515355525,220.5286870036507,-3955.137232461566,273.49357947801036,579.0601984356326,862.2694314498949
9061.386702635333,6222.06441734868,643.1639751912444,11197.65706659884,-816.1477748261386,4990.95472430528,3787.3427153729863,5355.734897770453
4492.804774496573,2931.308134150051,-2288.6665441181103,8735.036351541392,5735.39781308682,739.9504894512575,-870.8198824005667,484.3875092941016
-7720.056514031399,-6279.174204335664,-6081.371025657856,-8881.503507007132,8796.743367673538,-8626.27371188203,-8968.907186253316,-9326.832898180743
-7625.845676543875,-6472.1146247663055,-6201.7821697736945,-8887.679813736017,8557.22380454751,-8391.809525495228,-8484.076744164071,-8788.920294786927
-6484.516193709431,-5621.122208233821,-5381.392153071349,-7196.150288219345,7511.741200466175,-7023.380754393776,-7025.351879233989,-7236.5741441047285
-5312.454727523931,-4742.563549447594,-4531.250521484348,-5565.059708393426,5424.101701980631,-5746.263522430825,-5595.701503492113,-5659.061144027262
-4522.556758298095,-4105.765391266119,-3989.481524628609,-4566.230783505322,2904.934992688999,-4926.732909848299,-4639.546096959079,-4605.812658002869
-3763.52517191058,-3511.8338917794754,-3509.9213755886303,-3655.4018336676745,-12.153035164083121,-4127.288753972924,-3665.455119263672,-3578.1020954043342
-2587.572339212311,-2497.9533565693346,-2671.5016022620766,-2430.282666973464,-667.0194257136027,-2831.4270033239973,-2423.326332654251,-2263.74906551007
-2236.4173068855744,-2177.2656760206737,-2391.5953824678363,-2206.7152516228016,549.35024348562,-2397.99824940932,-2100.11555373028,-2016.3029298199035
-2087.8320681275,-1877.5269990915913,-2042.664539166999,-2174.9494781446483,3246.425276580936,-2166.657732356858,-2145.7764318464615,-2123.29773323251
-1460.6840979068438,-1221.7902072377983,-1420.7838086287084,-1217.2926287800728,5991.403556134261,-1367.554703091926,-1581.0682729036307,-1618.5424688474595
-231.3682212643398,-143.5009204533162,-395.0789734542959,-129.0626282768062,7846.928713811096,81.48574139588163,-216.42110204620985,-322.44448153452686
1293.2954966778852,1101.4893665452219,738.8409572233904,1625.2366707333567,8158.645323314704,1755.7138467263849,1504.531983717421,1387.2102637371354
2737.631956202342,2267.9040812712265,1824.7871024672058,3383.5013985616242,6977.094516734156,3313.787514792588,3081.1257450885932,3070.2069088710196
3140.1660571700922,2624.5338376205473,2213.1015042002728,3974.38544631737,4499.040891484561,3633.9602412893782,3501.4456677293056,3620.1880866763895
2690.8473281461993,2132.588835413553,1775.570704835016,3448.067200086516,1125.371046370332,2958.250132431567,3017.9643107515294,3207.7374932509047
4064.624069020254,3164.94589243098,2675.5867374041263,4951.6780729081365,-2227.1675228457316,4311.411477806258,4623.956112356253,4895.280695898495
4528.627482377051,3611.65648703435,3051.5942347155797,5171.87405260191,-4029.511529432726,4701.097758476633,5036.6065015148415,5276.325584476312
3326.948125519717,2661.947119294484,2169.192396371567,3501.6249036906665,-2915.6923591887753,3337.842335039153,3591.5000908419242,3766.914974209656
2970.165088953603,2467.8313713633106,2058.9093957040823,2933.4087536074003,-275.66641127484036,3019.868933059297,3144.338800241778,3217.9712756485605
2880.783514671042,2584.957345123541,2155.668689601611,2725.6299015071418,2696.727541013155,3023.8816455197302,2903.3391250540662,2898.754670073089
2011.41420337023,1950.7080903646565,1448.3463474100572,1816.360986940228,4683.541481299035,2134.6755474602614,1775.6397219183636,1699.3094743758993
1270.1047828073933,1185.8541072133885,832.1816749139616,921.7585379322118,4551.528430125734,1299.885324025323,962.0387840353287,891.1709678086627
389.8898264064992,403.8599074533413,222.86721452596976,123.47510108168353,3010.7704887866566,307.83460711202497,5.000887000329385,-11.592155781268957
-65.13059053905454,-80.15714801841386,-241.0757057463852,-181.34342560065852,135.88491488050204,-231.4056549403249,-344.93138781874586,-313.5708325361338
-540.2286607303249,-620.9544404996414,-795.8180751199179,-628.7979704058671,-2259.44377987177,-813.124005737176,-694.6651881272192,-610.6670414019027
-1832.7737249409693,-1779.413493973756,-1887.3885785870661,-2133.1213834612863,-4022.707635672239,-2313.30210245106,-2010.167823944059,-1952.6143850906883
-4106.115870652626,-3670.2925087350086,-3664.945152173146,-4923.950447347073,-5328.330339517677,-4847.804495183525,-4490.744246813738,-4533.23811494447
-4326.623596672536,-3884.5581783508387,-3921.112798693037,-5169.241853473344,-4748.672239602543,-4959.9923242074765,-4619.1247544962025,-4717.177088590441
-4162.952428535973,-3634.9346900773744,-3698.1757691365347,-5067.082878175541,-2144.018135998107,-4623.883265787052,-4490.505542688305,-4650.74641259983
-4713.067516584757,-4023.8737446563828,-4070.768836487252,-5805.92438131832,530.0523581060697,-5053.4808430919475,-5110.343559702844,-5435.060882653852
-5630.5715920132425,-4648.6279466320775,-4637.410930302944,-6857.141515681957,2503.5219312077097,-5941.937258530999,-6199.811140684236,-6591.278481999005
-5054.004912238939,-4181.885968613504,-4207.623351272763,-5813.336088095006,2798.8638979649404,-5157.068611214665,-5424.292896826486,-5777.4210097781
-3785.235221400875,-3182.748979144242,-3267.1403591111302,-4000.5043799447158,913.2019165327365,-3719.182623377086,-3950.839559794,-4204.062744882329
-3562.1526873366092,-3096.02357578593,-3211.786165423993,-3639.502736869301,-1990.4138692740526,-3541.3728924529087,-3617.064320421232,-3821.8486254363343
-3344.454608101456,-3028.7816721449053,-3218.584271093907,-3321.6331611683854,-4414.292828205653,-3404.55127524794,-3269.429355700002,-3409.1314137543814
-4230.656634753817,-3766.4337878172482,-3882.2761868343623,-4474.142129150518,-5844.064957444731,-4517.662843868247,-4268.74748381383,-4365.706048656419
-7285.477159607983,-6363.608934632268,-6244.461695145347,-8180.386063557506,-2547.7013905654894,-7898.655313601657,-7613.418002705703,-7830.390311955229
-9341.242528447114,-8161.975216682111,-7882.081627967867,-10623.312388177845,1188.5685749759723,-10022.354528318332,-9707.004097253484,-10089.094386121556
-10006.459252386794,-8660.126468150698,-8346.098732212069,-11476.881639466652,4172.725283863023,-10609.536797059718,-10425.754393753143,-10899.157047060757
-10262.781188570856,-8809.244474545056,-8475.252587855426,-11694.087642644154,7196.009123932512,-10699.591812101316,-10681.443861083157,-11246.583813819103
-10561.359492374737,-8966.400048259278,-8580.66923523631,-11983.70067734336,9192.522466413735,-10886.775466982384,-11048.177409316046,-11694.511369818167
-10473.27684886687,-8855.410823495844,-8481.067889716094,-11715.247975840204,10156.734540665668,-10706.936432852119,-10952.061288576246,-11551.481570130964
-8624.27944146681,-7185.017802191804,-6882.800342727678,-9191.566378394135,8967.652880549722,-8563.396208230377,-8727.236196063772,-9177.359209072514
-5886.69165202733,-5012.697324269502,-4746.266360291222,-5799.4705927881805,2798.6876331882086,-5617.844313839218,-5647.077802240092,-5944.85121415231
-5187.899295908392,-4559.624592448847,-4380.593079830636,-5020.478026538192,-2422.4944384463306,-5026.403907278698,-4893.961581986405,-5120.0890919930025
-4060.843461386052,-3645.84625886866,-3655.3473641979945,-3792.7904838690592,-5894.365930250613,-3907.3377003473724,-3658.0945482241223,-3759.1940423109627
-3492.114716428303,-3140.5259044720005,-3239.685620059696,-3387.2331533267716,-6855.311526100268,-3359.5077873554837,-3157.6816646860825,-3232.2293350175605
-3990.607037409907,-3561.4709038724977,-3600.197452132037,-4186.439939526797,-5509.465998364205,-3912.66159735182,-3768.9211784685176,-3952.657425141224
-3990.5331314580108,-3462.404426969493,-3482.9447593070727,-4406.443967338579,-2802.353635977226,-3809.401590618756,-3822.072881233573,-4127.273070504103
-4342.354539527078,-3645.075538334182,-3619.6312968085695,-4908.18132907727,-84.28478833643021,-4062.6707161649247,-4277.626953949701,-4688.577277441116
-4464.685976909925,-3582.369529920128,-3463.379025738628,-4931.269129942288,2077.4532357757853,-4108.00135867043,-4497.059953242977,-4938.332911240985
-5074.716960070276,-3997.5563828445447,-3722.8028925420367,-5494.515633307907,2368.485938183265,-4738.2100954708,-5199.596981475479,-5640.099741496058
-5173.520719046821,-4197.809545345066,-3903.842732879886,-5394.30672466768,843.3952296391653,-4877.00255721288,-5246.778189340606,-5647.637704965935
-4416.393020134536,-3652.1480685239803,-3525.5026788895775,-4276.923753916868,-1690.9419645640883,-4178.553616404766,-4287.824334537741,-4594.461171671879
-1820.7979744869663,-1357.4098414526816,-1645.257988440164,-515.8662819992023,-6705.563518753101,-1592.423218515949,-1523.5669080396037,-1488.3510423155385
-1714.690901423237,-1379.810570962567,-1448.5385253632994,-1484.5818675678456,-12381.598814361758,-1533.6025314774015,-1279.7600862286781,-1332.489195142858
-2643.0005500344414,-2186.6061677885737,-2151.2293079124356,-2887.8450849369983,-13318.858027161914,-2583.6674726138444,-2331.4149200985266,-2455.5882744871487
-2531.7435938696435,-2163.938472371403,-2006.1684423369006,-2818.916874061644,-11607.548602661467,-2392.035840296623,-2216.128473705612,-2401.329884847204
-2751.1465972346487,-2404.5858104192885,-2119.207944300215,-3212.966678396784,-8844.296922859503,-2530.570694398397,-2574.079208525771,-2844.8481395155977
-2870.485694568095,-2453.3241727412533,-2185.6837131067878,-3381.250431300912,-6093.368298564077,-2515.7173186391883,-2724.4335125159996,-3110.1400418838166
-1671.2172447300545,-1280.5935425954958,-1087.4008088706905,-1880.7190346904972,-3893.992034228402,-1051.510277302703,-1439.3522454166377,-1834.6053042446001
-2094.3872261049546,-1570.6360861711728,-1356.7223619649594,-2377.3420397576556,-3571.5379893866484,-1521.4271715681243,-1985.5925326276774,-2401.29786127618
-2021.4566965130361,-1579.7387530235574,-1350.2180927663285,-2085.321801106853,-4807.215358877409,-1439.1261094551883,-1858.5156105638744,-2218.7831363349105
-2638.8159511405684,-2199.8646845373733,-1916.9539255048003,-2657.4220896895567,-7336.065604307136,-2261.500210535247,-2515.773395370037,-2793.038029198331
-2898.419965192268,-2546.9519527380326,-2260.828842082876,-2823.2038214322674,-9860.04222235475,-2672.0009181435453,-2734.2795490341814,-2915.1050460865954
-2631.048539156778,-2393.4311593713646,-2160.9373823220085,-2439.670060959441,-11514.890145335812,-2450.906755516771,-2366.2557460047974,-2496.105210902955
-2809.954862257291,-2518.0012539121963,-2297.929228619774,-2758.339643856889,-10896.482406429408,-2662.8411780598108,-2553.7986100466514,-2693.8003129765275
-3825.1100657571515,-3321.6552783465304,-3079.0368869849335,-4165.587479191308,-9288.070024866218,-3750.6923521628487,-3686.195055307093,-3923.0129244239943
-3857.9726575711684,-3317.796616636755,-3132.5224612892052,-4480.424785032927,-6672.926906034045,-3725.2058291138674,-3823.6019642758474,-4143.670318132092
-4146.824662007886,-3493.3984198266844,-3283.366206103892,-4952.789374226093,-3921.6425815019174,-3958.067939316883,-4223.321701812471,-4637.084626532742
-3637.3696153129276,-2967.1019685302454,-2810.222409942304,-4243.896692541719,-1793.6874317735492,-3244.440321285714,-3699.431278039585,-4130.539948395861
-3884.7380201726337,-3139.9160039010894,-3003.9564756124164,-4509.397295251605,-1439.5296530317355,-3516.200958673813,-4069.025820474664,-4465.534421268501
-4096.6634348440275,-3445.2279777439107,-3300.151316245072,-4556.9142181989155,-2957.715421583649,-3790.246816702129,-4262.850103865174,-4622.981638963713
-4058.0444525128114,-3543.2727342086146,-3405.0860190869425,-4319.029501458106,-5765.310761568129,-3796.412423145899,-4086.6193283194734,-4361.755084847828
-3283.9785570526146,-3033.610664797554,-2937.161045538436,-3240.2808554248477,-8267.226136573823,-3017.0071948258555,-3103.032051732327,-3263.7983789456775
-2225.6693372102454,-2186.211928734556,-2092.360205788631,-2021.749664886709,-9750.62069862317,-1964.35763456524,-1941.1851085428207,-1944.4361451349978
-1217.851045820862,-1310.2274353278044,-1221.9478567868937,-884.6187856976467,-9394.474372765377,-846.5268430224096,-792.5964738206821,-770.9054479780316
-1402.618504740909,-1390.7419600127323,-1340.8963597004185,-1385.4870571275533,-7881.2005417321925,-1026.6420280140883,-1114.60481553906,-1187.7521233128791
-1865.351739150472,-1657.1665914077894,-1518.9118904465286,-2158.3535047802434,-5219.044828164369,-1520.639392266632,-1806.427926221484,-1961.8571418685897
-2234.471637062612,-1925.909873943805,-1705.7811167359177,-2649.2499333662854,-2544.653982664353,-1832.1063177982287,-2247.691478265653,-2530.7431426464755
-2076.9268236207135,-1626.7487812922918,-1405.008168078959,-2382.442125061876,-353.5491907722226,-1499.6392014692246,-2095.0481322131527,-2410.220415229094
-2289.2100505761045,-1719.2368965611386,-1463.9948226116248,-2538.9809555783286,-34.330337219917055,-1732.4850534412253,-2380.9861707516247,-2660.2908217573713
-1789.396597009414,-1404.4235651068448,-1173.7081418953894,-1689.6959372943675,-1365.931509670705,-1196.283956792322,-1726.0832322003553,-1965.7574585202383
-1021.5655826821749,-900.1832919417648,-729.7282353603514,-664.30062999652,-3860.511738901515,-476.03012832807144,-839.024661594769,-963.5546860435279
-459.9113134902145,-518.7256350743701,-425.1001766368281,49.63056354489527,-5998.538642582089,17.410706016875338,-184.80807042762171,-199.89946547077852
-411.1746461444127,-514.4796171071066,-474.2746453761647,-29.43293512595119,-7260.882321547765,-52.47906247040373,-133.8071180828556,-62.07644105987856
-2308.629999140132,-2117.211839087744,-1970.593754241796,-2475.563031713391,-6973.164660500352,-2175.4796136304794,-2248.3232474082615,-2254.79758655763
-3100.636146664998,-2824.6862366981804,-2626.1525263908843,-3445.9599685358116,-5352.4420222048375,-2973.304090086225,-3039.7103308666556,-3177.730713306897
-2897.791312703135,-2604.6293886629282,-2422.292189532018,-3369.5480698815372,-2747.993823549714,-2659.6075714185718,-2870.1436892306665,-3109.9770061689196
-2346.3163138589007,-2091.874709446245,-1964.5105137376813,-2896.861492703756,28.5499242559672,-1988.0065187521977,-2289.9327553081384,-2583.0916047503997
-1450.388453049498,-1252.368364965514,-1177.6390307155962,-1833.001897237118,2111.825408796536,-895.9461823997553,-1366.4456737223954,-1684.68375334944
-360.69869399728486,-217.74975901530706,-244.17222534536268,-427.8990976480418,2513.295347302421,356.7477974619542,-276.284897471196,-484.86789841920836
-1151.9464445907506,-917.1841907626949,-855.7167195703078,-1267.5723635360773,1091.9687110374653,-606.4675840332347,-1185.69175500446,-1375.024658468028
-671.2187914294191,-640.2911851425597,-568.2432031640201,-461.14155561616644,-1352.2134060995668,-150.0908005204692,-577.1536801611946,-621.7516578295617
-255.307881153567,-397.0322553734586,-338.3948025601567,135.88052935586893,-3601.65054129736,197.75956116832094,-36.22647883972968,13.160498422425007
-375.32669729334884,-598.903386828606,-566.5518215666525,-68.33182606674382,-5551.893300096424,-40.7337810487079,-62.91511958127376,15.071702014480252
727.5667864110146,362.8382685355609,267.3881017015665,1127.3413722492114,-6726.320124530979,1192.6474303045252,1131.7272452215839,1258.0721331451205
840.6400835320819,500.12720986892236,362.4095298909815,1056.480535275361,-5287.57677091848,1319.7544348706142,1186.444364942523,1238.229642306338
560.2391326265933,357.4331017433724,290.35883578282665,505.573346868885,-2637.6789061324525,1052.3024091012485,764.3159732978093,726.0587476583605
99.16753022940247,89.03053063037805,113.09136030834634,-149.54526432510465,29.515236474282574,605.0955065641319,123.52663752035005,-16.171513580484316
-73.91174346974003,75.51360913272947,168.20767581055406,-346.98517396787065,2065.931880354321,508.5967740913329,-111.51096701234928,-330.0835713741835
405.0479489089921,481.7629033833218,574.8732080109767,360.9707747735956,2432.7988838045494,1078.610378763493,442.44927212188486,247.1768166263937
1401.372934786923,1258.2963141233486,1334.8735606471892,1718.4382483174559,1131.6006380500476,2125.544212449109,1504.3333709303988,1438.8800131023745
1396.5828437593882,1175.6498466196645,1273.6785114672093,1883.123428727209,-1245.0426780485795,2005.5658689273696,1602.5726002955926,1618.2755471611163
2244.1451048564923,1796.3130593583046,1834.912528093817,2955.921143634245,-3891.90461871124,2847.3199816275446,2609.340490944305,2754.537944927026
3493.1208271333016,2775.9488230515854,2733.560158621636,4384.859131039237,-6891.028454815634,4122.423739673017,4100.261427531368,4304.36153134951
4231.851959950494,3383.597872350627,3266.7096322973375,5006.355678047199,-7877.6312593357725,4857.213186433219,4832.199174407899,5058.945716431597
3999.9906782549806,3220.8492891251226,3103.696279103344,4424.726736872835,-6509.432293022117,4589.535145115864,4457.01595269746,4630.505116853339
4165.33835569903,3456.8704159441404,3339.454370800784,4376.07809723902,-3822.9721029699867,4830.939620936842,4558.692140205618,4640.37963010883
3706.6077467456926,3163.073162557761,3108.198350257124,3673.788427804073,-1117.4508608287724,4357.074442077661,3898.1240172942635,3881.606776832312
3945.567534860573,3464.252588435338,3458.568069988716,3931.894378657482,927.146724689359,4685.665590148157,4046.1661647127476,4012.8056134449143
4991.49074559164,4394.563268128142,4334.086565115489,5232.104526507348,1436.7206825930843,5849.567958188156,5170.2117834160745,5209.831577585195
4890.445503741037,4218.504276051855,4177.346905231709,5176.405099865573,458.7655083004356,5596.608458799688,4984.310259199934,5111.406289116712
4999.375473055232,4153.203622931338,4124.266425943642,5460.986379901267,-1248.752337300968,5578.500552886922,5148.476840515446,5366.488682665775
5099.648226614983,4129.183502205895,4109.39940555791,5630.142428935535,-4030.168251807874,5536.581228638708,5293.671707232599,5595.051811173529
4650.018513923569,3765.381853754414,3707.840647878911,5046.6000911374285,-5858.102785049603,4922.722118195146,4807.936249392922,5166.243875652959
3449.572724230413,2739.9445846544695,2779.4600424687815,3729.030551275122,-5169.458682799188,3700.63085551736,3657.3416893327085,3903.7495255836984
3619.3648057877,2814.494691285203,2892.640469547856,3885.1097058700107,-3626.8237994116935,3972.5247244488564,3870.6913890476862,4066.709298190748
4386.214377045355,3575.420007297056,3652.0794797648414,4533.66129722014,-944.4628569308261,4860.773904902308,4547.245569177438,4714.123394358234
4668.767080783859,3946.788149570115,4030.9423730642593,4745.509573042931,1821.7812743240647,5253.997163983688,4731.096478437394,4812.195262834022
5074.158559476375,4360.689205497445,4438.335148172453,5294.966370658134,4012.4520463253866,5817.215657520297,5161.019336203855,5167.84190028689
5799.996108563093,5002.274390484163,4991.709557352195,6153.997980030952,4442.888934845425,6566.311346918999,5852.419230659725,5931.970446288105
5017.013252758843,4267.1533886920515,4317.4637202728045,5159.455599535198,2969.601425251516,5569.186291780832,4911.602919310666,5026.5431150250515
5347.452007269443,4343.103255041366,4354.220575841828,5722.269202089286,476.77455871229176,5863.2698321186035,5474.972127301036,5644.020144321345
6251.014118377076,5006.729652677357,4964.943352266389,6887.653821354674,-2378.2520222125895,6770.579155287094,6507.328463481783,6815.876053874585
6532.852053584298,5190.693262402681,5109.29393539633,7222.325498280232,-4312.232753110162,6998.322491932791,6862.3259881577105,7236.728017529822
6719.21915622527,5394.43881039352,5241.774850387548,7241.884642498597,-4153.636532756951,7123.955725238833,6990.8048781624675,7374.824232854982
5506.809622622255,4401.663235103566,4316.745634237843,5572.626207496374,-2739.979088953187,5731.568565897309,5572.33617951037,5839.3103680056665
5914.926888467773,4831.655621016696,4793.125876610888,6060.080791379252,-83.11033266008599,6328.679852126632,6078.733049800416,6225.407705517078
6108.154964057772,5120.390153217209,5098.051602344414,6134.769134046786,2638.8608209392114,6615.015726781312,6146.326510186082,6194.389381863686
5859.556984304305,5011.559385924469,4975.4046306781165,5719.527566342207,4637.002525948032,6386.170944122699,5698.115874521325,5731.921539731462
5147.975527167109,4484.72574286149,4469.731645317537,4985.89511707802,5073.496197633256,5620.450745880793,4898.824261110116,4954.3492911630165
6504.368270687752,5495.372002393444,5441.593994094415,6843.731005447822,3869.4007176528103,7084.536461751304,6468.11371607703,6634.940194770403
7428.596258159683,6185.67469839863,6133.2303661298865,8100.781000947609,1306.1414896039933,8006.1274195436745,7521.164711838319,7806.5704582461185
7705.052069399004,6347.300789357632,6377.925040290702,8557.44726061033,-1625.8544146466156,8182.269588754956,7899.718215476285,8246.138996913378
8998.57565820976,7354.255787992377,7271.045215529273,10009.118111364485,-4681.04020291999,9521.650656048429,9376.443045262618,9854.274347497434
10162.379221054574,8375.837762126357,8179.505436646168,11160.610970675134,-4865.050389668511,10749.96492443059,10625.604292825934,11145.301735405736
9827.578431191198,8124.0016395697,7990.704850841934,10444.735150858654,-3658.27297742496,10338.712394800266,10154.321648605624,10575.064593239897
9249.645022087712,7740.162393627206,7686.453138947782,9430.295430236609,-1412.3433926061552,9668.856171903299,9308.177923984615,9654.5110008091
8249.668885442257,7048.701504172326,7118.94028720335,8238.785849545106,1213.2823690412333,8670.241770681016,8099.4896272941405,8321.038643495795
7364.614702384115,6378.518200942328,6559.9663127984495,7228.194534536495,3344.961755328186,7799.500041038587,7086.7801755313485,7208.251543922925
5946.7953720513615,5251.979699690641,5441.263082995101,5558.0250562275,3545.315538394163,6211.4829391349995,5459.364940984076,5565.122450379986
5902.569097430165,5122.38727119863,5285.563392978296,5804.328869973964,2215.217782364838,6200.48913662407,5592.64372215914,5720.666774358106
5757.9363021769095,4849.060888674587,4959.377768038114,5847.722547949736,-160.23778065896477,5973.2440003991,5587.519909551229,5816.421646870644
5947.163243586096,4867.534917592973,4955.229750598752,6153.020775435187,-2777.010432788462,6096.325883515674,5901.425990632772,6241.540090212831
5447.3660581453805,4398.4249213580115,4478.592363659671,5529.319314833585,-4120.341203148899,5442.0767296783815,5346.090597627997,5716.971031394642
3418.512761317652,2694.1426580440166,2898.416523181848,3027.4372503940467,-3845.3165120628837,3152.0770584122656,3126.47301397266,3386.3717739206986
-2511.4898145426887,-2117.0340507543833,-2108.186845448219,-2834.833985033773,-2906.8078693277193,-3018.427202074494,-2461.2027980166617,-2453.980487882168
-3134.7515451070876,-2537.4116162974797,-2455.8484468571914,-3632.5161122059767,-360.54323144990303,-3575.7110190642406,-3188.45379590535,-3269.0011248249284
-3009.44874743522,-2352.050734774013,-2276.9796483603413,-3480.170694190957,2373.1341071346324,-3297.1191276383315,-3051.849085673347,-3218.619438278921
-2432.3527442785835,-1788.0441899006291,-1773.2554102936583,-2758.571014406405,4508.514465434068,-2534.7975474872383,-2442.587717569213,-2681.0848725039177
-2514.8105618401714,-1815.722458080263,-1790.0607583620786,-2711.3864051210876,4797.279356882718,-2582.7201571217574,-2586.787260666366,-2817.8093675171403
-2244.857577237077,-1646.8444601607644,-1591.4374479624876,-2089.3045522351986,3557.0331592191633,-2235.582983101738,-2223.6747003899345,-2353.562962961292
-992.686377085025,-735.3604184384185,-763.0405114244477,-409.45432425167746,1129.3105966001403,-906.7110020899017,-724.4128652831769,-720.9040931998934
-185.98350155829758,-153.56779541521064,-263.81457701684303,589.9784763536372,-1385.8834969951968,-113.50594332086621,209.20566836580474,335.3072561228146
-277.5272495915051,-322.0734434749156,-444.5889734083503,345.0410894433371,-4322.948371090279,-328.1184297288564,190.9486092224306,344.1726619717774
677.2169897166423,437.56365229842413,236.06604817311745,1270.9641159923121,-5337.5987957846455,675.7892107825646,1235.4672699055573,1425.6125871733257
807.5525172418911,555.444093783286,353.21484452733785,1211.1663304290123,-3941.4474224170845,788.1900774201677,1221.7477433506465,1340.9213001376847
826.4191011982693,710.46699414471,557.3540950573315,1056.0435052268167,-1298.984146647716,866.9900075534988,1090.483493923286,1133.1486138271102
141.37876607338694,259.4200821767881,204.95929946199067,120.34786529037228,1397.7058714057491,185.6830532189706,216.37794992835006,164.07335519336084
-340.9942324502572,-46.24971932860535,-113.32866738123448,-487.49881968261434,3417.5779308742513,-257.09274542544335,-355.1860843595896,-486.91252560633075
-93.62870407686023,168.36673320580667,71.80188905251816,-68.75117167201643,3889.621669990313,83.45289947120546,-31.969681092490646,-189.78648650395007
658.5962722828717,727.5519990655503,581.7485868703388,1059.137283956321,2694.935347574704,886.4058370717721,861.4243767335538,800.2954125241886
1387.1693727287293,1259.3101383782614,1088.5013977536892,2099.2150786355633,292.5499753986169,1589.6272276212185,1655.5172226652012,1761.2481382079222
2061.335373503922,1700.0129741204719,1458.4995969609627,2900.5077270850306,-2412.7892073468247,2168.819483697076,2420.7111524234624,2643.4102648012777
1834.0975369124208,1463.0758660439515,1223.075217513211,2533.4364929306566,-4534.961864348019,1792.3750752278083,2180.256796307018,2422.4952547146177
711.101379896616,576.6676696485538,448.82265595500576,1171.7959334734178,-4634.156176453732,547.0254320373406,981.3241983098796,1158.2458140209092
742.5347053024443,686.6987388982197,537.7233883268918,1122.587964097616,-3252.3795194057216,591.4489000958329,1005.0837580233883,1144.0130912586087
323.18652933916746,517.9142250201621,367.87825558351324,385.8489314215403,-718.9034431688788,188.99692659629727,401.6642065796027,451.0020758050737
-238.08074936815865,148.81968489830888,68.50738020544304,-452.94019202897925,2003.0624000177786,-317.5989396580426,-317.5998032182424,-330.3767947420706
250.87893849333705,549.6253420222333,481.7785005004125,135.05834839720228,4125.807654448496,331.3577051479333,255.59488462729587,178.1014886027756
1715.7007861693528,1642.7378566461985,1551.3911385481479,1963.4656892213416,4546.562568325529,1994.0522698608856,1943.6856738500667,1877.6432111719591
2434.6618496851806,2060.104862077247,2071.0108590544014,2986.9133927579564,3399.598582607718,2787.0318240159954,2729.0057809853433,2739.138964489758
2714.4852769171775,2229.6282316509014,2217.53795115882,3388.8831683990848,979.8402459468452,2989.8830693666578,3057.8258429770267,3156.6168274172887
2387.4568418612603,1886.6962383724695,1846.7693749656264,3017.7558590738017,-1566.3174588189913,2480.6964922732272,2757.556053641877,2925.509031153204
3029.4390777801973,2361.3505480596627,2269.8366238334793,3799.3392103606875,-3742.6385564525845,3086.2074812451538,3584.6313695559656,3847.2317109147316
4086.0847435757605,3262.681915780793,3082.0230540813914,4869.1061792664495,-4220.621240270913,4199.319040516384,4689.636708569316,4987.476363198042
4378.492343580498,3524.3596868143723,3373.74157101115,4969.198060568029,-2693.898272557311,4492.014282389226,4885.555173289311,5124.707801535924
4271.317858368331,3527.2062804655798,3456.28416017537,4579.20054197995,-172.89210494935833,4409.050427079121,4606.7339452191845,4765.63603815977
4007.309635549809,3446.298251753302,3434.6355823908216,4174.6991996551515,2552.6318529448727,4212.963438280443,4218.010023714298,4270.248791349779
3451.8756409671405,3099.733044379016,3119.0463402707173,3471.677113599213,4575.238616693248,3666.209978382565,3488.79809894985,3484.8850453421364
3495.0510988164788,3189.973236646194,3225.115454810828,3624.384048448286,5004.144051573663,3725.9865900629447,3511.8049143495155,3549.784833699363
2823.201500059302,2548.94369288885,2665.608988941738,3034.464423197358,3774.5645101574455,2958.9848796044207,2856.797145116485,2872.6080764576036
2956.045337589665,2524.006446618765,2499.3825889373547,3208.850336751115,1405.2915722017333,2844.7518020337884,3053.230108169897,3256.353225730345
2109.13245039466,1700.7338909415848,1460.9407277284154,2128.083694701825,-996.9913527512308,1587.826281734524,2177.7961986684168,2540.1428317604514
1577.5503054403307,1201.6158255962946,1242.4477191282713,1917.374401449466,-2590.719946729878,1269.848573908348,1689.6461609752369,1971.9674897933364
1441.0669299960937,1101.380655384819,1166.878510406812,1664.122687608593,-2740.970018259968,1103.3927176008729,1544.4857330962186,1802.1107573622212
797.0356861796754,571.1263005783258,661.1356034039709,833.2768129077958,-1314.22994228284,456.49218135685805,841.988347669132,993.3285579758231
290.6186499389223,278.4571893579923,485.5331708846352,77.41573878352938,1226.0468923975495,-5.923381241125753,169.8096366616228,254.40861511242838
-65.08985384682455,27.496028937966912,272.1528328800341,-387.60975003569183,3911.905599953341,-264.0751211648094,-263.89477995751804,-290.4780643505728
245.34380787829286,371.2432893350997,564.5242671507804,61.414994571307034,6065.560009813544,257.9440838376395,154.4490198563508,32.33289063297707
693.3946792886272,797.5713550548389,935.8108152414716,612.2984563125938,6407.375014554018,792.6435774461133,604.0660712101453,506.6396597379862
1237.329032129157,1162.413777764159,1269.881327181407,1413.932771773274,5221.840249238321,1345.924952862064,1242.265560556887,1214.2332919701876
2351.055715925904,1955.6181367807294,1978.6756207987492,2868.4790704608167,2801.633759180633,2517.7866720926104,2569.2911094025912,2645.1087163612174
2238.6366303284085,1787.8575333296249,1811.7674684084704,2801.665631896867,-323.15289354713605,2270.7429113287217,2489.398626159331,2615.5816250486023
2504.7347591410144,1966.064147023273,1980.852502880778,3131.0273436762945,-2857.161369054258,2438.9468588525706,2762.8978896833505,3028.8489492210865
2860.8780306596454,2281.719203457571,2264.5151535150944,3420.445114753202,-3470.283178829075,2813.4458192587845,3164.276959490642,3389.6843630617295
2482.092459765823,1987.307564413466,1986.1611595334398,2674.2977424050914,-2566.3182802559677,2372.1546521324926,2712.8133735186057,2849.084515154522
1318.1535175502577,1094.62527821595,1164.2637023895222,972.839825314164,-174.7072513632629,1078.3145695209896,1260.3312634891336,1279.115285656546
472.52786762498727,459.742050859335,642.5872626994678,-30.121874302552897,2441.1725942054727,270.07842464602436,214.6972557690824,140.6548720911669
712.8039768488161,718.041864718718,898.7449536512431,330.9330804811325,4518.308337955492,663.1465527804612,522.3816161872383,366.0629442603531
1390.1971473463564,1318.6433866800944,1404.5090129052915,1209.094873758877,4976.479563095385,1444.5250564566886,1245.8265644630155,1151.2959567390935
2037.4288294327635,1818.7867451467682,1910.0957603473435,2182.4399584038765,3485.8937949588944,2175.15337755534,1949.7871513297287,1964.5072843603994
2395.5022508427137,2047.6399185759,2128.4083285534143,2804.772018830743,616.0074057387537,2499.4675092379985,2411.0869336880132,2526.398548705096
1990.7223878670848,1615.1328561448827,1658.5112485196296,2374.5007222709246,-1968.7430554432212,1904.631487143335,2055.056010097105,2219.4887820934673
1737.0112554460575,1297.9809622271132,1324.1408874195622,2001.7521645733214,-3750.774296079184,1534.826012462312,1884.6788344933739,2105.9000198342983
1766.00609050013,1295.8321600651689,1327.809444591221,1993.2015415032802,-2978.633329033244,1549.1373504444637,1982.5295330649387,2212.3337764117605
1583.483264861483,1202.9818443985932,1240.7400426831591,1661.7191451742692,-1385.9213174018914,1380.9321872697328,1747.8102060803649,1898.4193272800767
1530.699663381558,1283.1712642152706,1329.6647799433922,1409.071882071963,1231.5633450113091,1408.1698604990233,1579.3574995621748,1623.3552471896837
1268.9043728594115,1210.337619985221,1274.48354469912,978.5707941726432,3916.3906924242438,1221.9071656020824,1146.7929575659218,1110.7656559440802
276.0506956778845,491.98953000146867,658.4111024329177,-230.7784822993999,5933.445996025563,205.42301697778748,-80.55675506207626,-193.1172429692524
-142.36930258650682,161.93514174894517,419.026196269966,-493.50311732625414,6449.543628645326,-175.67047266612644,-478.7995126462338,-595.6393224140338
717.8228133006633,773.994770789308,984.6164549508685,779.598073824498,4945.743721060091,790.3982542654412,607.7952167108742,510.6277446075983
1155.9361812019488,1056.2448692110047,1231.6537872252666,1425.669944405352,2162.4128563353006,1163.2606148258055,1126.3471928135841,1167.3561376822618
1594.295963670971,1299.8428980655153,1450.2282992844703,1973.9894927597343,-819.8053782413554,1494.909614527729,1691.4945815685642,1842.8990474316088
2063.8036119356984,1606.711622894145,1655.4713821961923,2379.3130569468776,-3291.887759799305,1883.2965877512324,2271.0457798897696,2490.285810371395
1598.2986607129278,1205.875516519518,1215.4520081319351,1748.3455229265965,-3614.191787060059,1330.2009760090878,1781.3147975451575,1967.2818332798342
2092.702912023844,1604.0477948487242,1597.614408972353,2263.741021687587,-2464.0958655958166,1959.8648177807772,2310.4599560170464,2453.393697688909
1975.9208497339569,1642.8472764764301,1688.291335781032,1928.570404514554,122.26099011484621,1924.6611196102167,2058.7336332703853,2089.1228725929104
1699.3744361631834,1526.8891550896515,1656.7823689624784,1514.7527280654322,2807.0584623927716,1729.1821023696975,1675.003597992254,1599.5344468922412
1263.0675749508082,1249.1678301760694,1371.2693763302523,930.0720492630062,4796.171723380357,1325.5851899330737,1118.2283464976354,965.4761919245793
273.2410487242014,448.83334582492535,575.1544384320587,-205.20526688428072,5273.536824283801,216.73976646742085,-46.13979572344397,-200.92579758407373
-1456.0430316684506,-1048.283418812105,-806.1199621519772,-2029.185629815911,4021.3355914202984,-1691.6266960704233,-1912.9849508868792,-2072.782637181139
-1835.7016865894402,-1502.2705888210767,-1237.699101360573,-2128.1250423883757,1551.8271170490261,-2121.646905067988,-2127.2920253686607,-2252.195305341287
-1125.3990249836788,-1040.2828602662194,-839.1743600140908,-1063.0993891135586,-821.4676998747018,-1387.6221082629781,-1193.8582064546645,-1189.3831342794729
-425.5266520783334,-529.3516911957558,-459.0957161402912,-226.04945080552716,-3023.3883473771275,-697.0728329773556,-325.08632708946243,-227.93055387507775
-180.62234436668223,-316.69373879171326,-321.64293284773885,-48.18785287896753,-3031.366950031057,-422.55537104610994,-91.77666303346632,55.61086093533959
-209.39709947418305,-331.6568938582641,-312.6502531531296,-259.2221682741074,-1405.4279412106553,-415.9212412526249,-165.9670016193122,-88.28656779037556
-625.7732917703397,-586.7715412348625,-586.824443741556,-1034.1588060641952,1196.2289556575997,-811.0664941552532,-690.2769674183946,-748.6571558426222
-882.0363843257364,-704.7142165724072,-645.9515668030363,-1375.5883945388632,3919.1586585651166,-968.4759041304205,-1042.8322790700477,-1191.56182173657
-860.561785757789,-549.7730969118275,-435.55388675953145,-1289.2165400311496,6017.939764069197,-868.7041651040054,-1154.9277132164134,-1300.7319319459493
-256.0538656323042,-23.970645718392916,35.7022592775902,-321.15746160570416,6478.680459730829,-116.60874776777928,-465.835980542819,-595.773935167701
-88.96989689036855,64.90077885516803,115.22810598192154,-27.063406531699002,5063.419264047974,25.676964787809993,-328.3409160562733,-393.6654199016193
-8.663237323926296,-13.261489585318486,22.79445263517846,226.3105214019888,2016.178176388421,20.531726692279335,-104.97968746215338,-128.0265736621659
245.5924525793962,74.54598393649212,37.604709364895825,439.2197564050002,-1125.619958456955,164.94905143212236,247.57240301872662,342.3003312101355
-429.82879566754855,-532.0168403499993,-584.6766259615542,-450.74413472338347,-3348.5634832806536,-694.3877032266464,-443.8111701843154,-310.7987246293342
-1215.6592806286353,-1173.658263182806,-1213.0289218901744,-1333.1397909588268,-4392.245154073069,-1569.276114653927,-1275.4099840199196,-1172.1398396699806
-694.6578630641598,-760.5816588540329,-784.7526967418526,-731.6531179874437,-3268.17873957337,-900.5170393343724,-646.3725814369682,-590.6020921557065
-935.5363616775139,-828.5890688829531,-785.8185377977352,-1255.4104186628829,-683.7635728073292,-1104.2188641349785,-1091.9114655498852,-1109.2616693699092
-1906.607499463018,-1535.1630976692832,-1423.8765574233257,-2505.5948981416877,2031.0042122852683,-2055.292956880803,-2242.436326419702,-2398.2425480134552
-1300.53187381108,-960.3232398540858,-849.7337469879421,-1693.4031873258646,4273.198486793539,-1229.971887709995,-1514.6329972495587,-1719.306721798901
-189.84971606689214,33.588185141758004,63.73553439648822,-279.2061018360255,4822.623199813272,26.807941762381233,-315.8823038032424,-478.40245432796655
-51.09272730712837,78.23688583689363,145.07952887278225,-10.296508223371347,3574.2431223755993,138.28931304863363,-223.18867397052236,-322.88503254696843
-257.1244897819124,-225.3011275545723,-185.79259854447446,-194.6527483498503,1131.4599051647674,-205.4996022971609,-413.1895176284597,-413.57147773640463
-558.5618784181133,-590.7374372364575,-594.34170712778,-452.61918581833015,-1753.5859459387284,-647.8187626771978,-622.9343410326692,-573.470488808016
-227.09372298618837,-261.0614548884332,-334.42392356932396,-28.10904559532355,-5354.255500702071,-369.6224275537825,-244.21021434711292,-95.36937106610276
-230.65559772354027,-223.5390007797323,-327.3448764402274,-132.60404596755689,-6060.395405990916,-408.1788170175132,-207.7901162137714,-80.81576754371054
-198.3080384802015,-216.15769071267277,-279.4386426524288,-310.21301548503106,-4622.832444334759,-376.7130693194922,-179.5732844768645,-122.17816679825773
-20.62019981382764,-33.373737219459144,-56.383597557440226,-292.31999021116644,-1998.0325819283898,-114.17084624021663,-61.81485116443946,-86.52241425412649
-3.544360116298776,17.67553607721493,45.65007897842588,-366.25113785745634,763.845111541661,31.09008390046074,-112.26806127285818,-212.5828643554123
-384.3257664683915,-268.53633068830095,-126.09716489088169,-874.3535287004634,2850.489886796764,-268.1650586834148,-657.8485590228665,-805.3846980880771
-1244.2096031962428,-924.7874057804802,-766.2936536367997,-1778.020905944999,3242.348870218171,-1177.6230182857107,-1603.743611314785,-1819.1395677611727
-992.1836792458926,-772.4553102499922,-629.9073198685364,-1218.6065715038421,2311.8991705133813,-926.0141616909532,-1198.9385900432535,-1362.1451131467038
-901.2353314928914,-799.5168000840858,-691.7551844597983,-939.8256982192688,710.4045940630895,-897.2860990489935,-1019.9677190877264,-1067.512153782649
-955.4024545348075,-952.0141521135738,-908.727077072981,-946.8982573785761,-1821.1063678031496,-1103.9987937406113,-1069.4036482671218,-983.0699348041817
-1241.5006734416238,-1258.0709331543112,-1195.1176241198773,-1207.1312160940724,-2862.392286648421,-1478.8844114038147,-1249.1198192662705,-1128.4364834653534
-147.1380969160673,-350.0189442014671,-280.48187106983823,144.20812628227577,-2041.9849702914216,-213.56737099766906,69.58586288247898,234.37236865899467
-500.1047123451717,-604.0216997679527,-540.9013848351824,-517.6187996815133,-986.4703778146359,-617.9550433913464,-460.1870512789319,-359.2354006617097
-359.4044905875271,-380.92740805833455,-318.20245294994675,-522.3516088796459,1560.7251432669364,-380.81731667987333,-385.5301337812998,-398.85377048117516
-33.17116812891618,10.237176669870678,92.50661515412503,-219.0225280126324,4284.3624640909475,90.09602645986888,-109.9734778557322,-207.94746818473504
-379.87355372599995,-147.33215469732386,-18.725211550772656,-663.2507442832575,6403.784000617481,-180.61960272695433,-612.7030911128677,-780.8410522388294
-1198.9136095084323,-771.4456886208864,-610.7476304491429,-1561.2622105241608,6848.151840431092,-1060.7197815408726,-1560.8745706994669,-1724.9687941326993
-574.3427589000712,-363.87898654407036,-230.10604549531854,-606.452097605681,5426.5889027122175,-382.1867733631225,-780.5188270017243,-881.7793996232358
-222.83829540073202,-190.1384381622629,-77.14075638026407,-44.40734725831135,2413.9572614781064,-92.69483891797427,-305.10819992680626,-304.05397132948565
-272.2828565901291,-340.4715178139377,-290.9843023387948,-25.188720165984705,-932.696693756021,-252.61007593241084,-195.53538983559702,-143.6474766945321
152.09473886196065,-41.27220023490372,-62.87259507210547,440.50649142006296,-3711.1072762185795,82.9230381650923,323.06395194813376,452.38257294578943
-634.3900887545824,-642.1252577791383,-583.840902877113,-637.8734418001404,-4009.851393385965,-848.6712973466783,-651.9029516886003,-527.3817883028532
-2437.738622958008,-2194.2145329705527,-2084.458095901733,-2949.602979950636,-3031.7290546505537,-2840.0826182505043,-2632.584362994603,-2668.3420696497196
-2943.8318308410744,-2543.331035400479,-2374.449975073796,-3569.123655061543,-406.9265420901793,-3239.9814395815774,-3132.4727791151454,-3308.5649267313784
-2429.9494438872207,-1988.0949896016537,-1815.2873816429128,-2955.6253927674916,2360.9351066110685,-2511.9111559999,-2624.3869293434473,-2849.219534264623
-1792.683576343421,-1388.487106228,-1268.5990404794793,-2182.4834247293693,4578.13476875858,-1698.683121511538,-1933.069153708173,-2225.277403829714
-782.5930285341092,-504.53990856566816,-464.1553555865248,-954.6278340395656,5011.009746782598,-505.757584743631,-788.5189748267658,-1053.975267250462
-1626.0260652151555,-1241.0559315359715,-1153.0746614868694,-1895.6732433882135,3789.361903893747,-1524.379673261261,-1855.2133465977531,-2056.2042292890765
-2529.9695286570204,-2116.5077408762736,-1939.359402980721,-2768.0217434124206,1342.240772370671,-2641.2927269548018,-2837.470771161694,-2937.51592507647
-2209.0812565366796,-1974.6549043213236,-1836.4971418157438,-2163.5286819089524,-1260.0179851473658,-2312.7291079045535,-2297.3391482779407,-2330.9643492920804
-2195.2445354127412,-1962.2865101402567,-1824.9941058035838,-2149.9773080233426,-1252.1254224603908,-2298.243169604597,-2282.949642070511,-2316.364240826617
-2181.494512827485,-1949.9956492324127,-1813.563187326792,-2136.510795299866,-1244.2830600685993,-2283.848019113626,-2268.6502505086683,-2301.8555444270314
-2167.8305820559835,-1937.7817089983,-1802.2037987875228,-2123.128648717786,-1236.4890535326413,-2269.542978337082,-2254.4404380335036,-2287.4377597911007
-2574.930649430731,-2295.48243811266,-2272.4029703422493,-3107.695375046991,843.7443651149806,-2580.306626655187,-2688.9103062646245,-2948.9868872043226
-1210.0397408693825,-927.3575111763239,-953.2691473715604,-1517.1658974816019,3074.43533292909,-996.0710248281066,-1295.3931939120375,-1516.9566644080041
-1127.6954340656375,-720.1815564612989,-774.8400726079781,-1391.0293726389355,3638.345923821442,-901.1107754806399,-1277.3106792074832,-1497.4863543321044
-1919.123522117403,-1452.3562818052196,-1434.897932056272,-2259.5606909354465,1808.2352470849873,-1860.4350712641608,-2192.4101958910032,-2413.200543359235
-2111.460950693221,-1788.1757709044687,-1735.9363833540046,-2264.348238404127,-1264.4734715340455,-2147.842590019598,-2280.358429097465,-2427.991313027236
-1955.6835596438905,-1758.0349381545857,-1733.0381995648786,-1903.2552884483011,-3794.579475663282,-1999.8122546770574,-1937.108804308562,-2003.0706733818588
-1573.595894931259,-1506.7781425042485,-1560.6905604859166,-1430.7809578258712,-5558.197042595057,-1626.420010396836,-1428.5351963567882,-1423.3062473223654
-903.8128485687703,-969.9970692445131,-1119.2711556268441,-789.8047964999787,-5945.057826622287,-927.3969077792353,-739.7234042853088,-678.7026051557987
-886.1893149875177,-929.0310366849881,-1104.2855776880715,-910.4631281991751,-4826.219005816194,-886.6976934487575,-735.0900513416746,-737.2541375106339
-306.44256751111607,-344.0315864120821,-559.0600085888618,-479.09775143498337,-2176.219638904644,-207.26093024783404,-144.32732779575963,-237.19288691315523
-756.1043950935782,-579.1313282843403,-685.1511417129368,-1174.9014144391476,514.0020122732967,-666.5158075085783,-862.1652298535628,-1024.2298760473568
-690.5596001867016,-419.99250876968654,-443.6050653811799,-992.0936675738085,2667.0088686751988,-458.9799954907212,-812.9029079607681,-1042.7363790456839
-1093.953269625752,-653.6195836820589,-638.2063832802523,-1440.4514109781412,3228.487078641265,-909.6801159884089,-1332.1638216430874,-1547.5984119796813
-1003.3643839331562,-693.3878556284144,-684.052404747119,-1122.4000562357287,1534.5239031346719,-792.333125290872,-1155.3491275967535,-1371.4280845764952
162.27805060316678,143.3402184436054,65.88965940403068,387.90755925846315,-2341.939891966278,404.8841543806211,210.61895073773485,143.4299293502554
241.01101743443724,77.64593666660585,-40.19110383413863,457.2522831148526,-5901.043227179471,347.520337148193,391.7265249275224,406.70152579090063
-79.49634960902404,-223.89458262494372,-343.9841498204296,73.58469929733474,-8512.76094099987,-101.25329151893675,33.391052903956734,149.95282940566176
-643.2258865742369,-694.0109016172537,-873.1603728533919,-709.4178617194884,-9485.217803486528,-778.489526101208,-624.7512082862704,-528.8568999422423
-1349.9639939373992,-1309.7159319819184,-1453.8497740312268,-1664.958375480437,-8365.139181155493,-1539.2081561662872,-1424.3137434498458,-1403.7851784554114
-1257.7715518488112,-1140.0198383044408,-1237.394948949368,-1666.4923505085317,-5759.763759741945,-1317.2343699207104,-1398.445812805472,-1449.8203545032702
-1405.4047996034806,-1144.8416347263083,-1185.7822139419513,-1857.4214359703074,-2960.3688018805697,-1322.939881324408,-1629.9317028033838,-1775.6869244454829
-1742.5153035823168,-1271.2512345931755,-1279.0387259543932,-2245.5316435380537,-719.806722349429,-1578.8237125911055,-2064.325857543099,-2259.011557525959
-853.3600079395637,-491.71265069744913,-550.2916466209099,-997.3436738184373,-38.42500762004056,-504.2793546073299,-1018.64027749657,-1179.2098877342669
-130.2698646536246,54.66037628669437,-69.34500733717869,-41.08142949397188,-1118.789108236313,312.32365571101946,-222.74040875230457,-326.47967418413464
-507.2669074577825,-403.24446979199456,-503.5451735464012,-401.69030191708407,-3517.2248850448595,-249.8724822888289,-570.2490484861501,-644.429344695458
-47.52404392931203,-184.39837168599843,-287.0614369655814,275.7053649039408,-5821.884608083226,105.58074886878057,54.371531541524746,78.34893914231725
692.4499130470922,424.8462726722046,264.01101487393316,1176.1443265850812,-7179.041030136526,849.5800656083538,865.481804753128,1050.8016937654738
576.4634105763053,318.51089350998154,108.83962872894335,886.6636622557162,-6832.023260297117,689.744037757715,776.3237836506196,948.5204809593215
689.4863293056187,364.36558164741837,101.17984986920055,669.7740275399756,-5433.490054668569,793.0856008672126,881.1168205912945,992.4228719494276
-81.42401315031748,-181.2098460216257,-397.88802711657627,-523.685018946775,-2932.207874563366,3.582733089928297,-106.31737682275525,-104.36714435868453
-887.3803618161946,-742.3084864570355,-808.0992612684004,-1464.4390104618687,-240.24159629119913,-777.9843574441038,-1080.5885043674734,-1176.3435621476565
-1514.8335659979984,-1150.3624597805174,-1058.2359687481949,-2133.136887470804,1917.4894851301751,-1390.1728748683363,-1866.3304824345105,-2056.1882640695876
-2902.954505629841,-2268.621283835415,-2116.262873165122,-3674.890179065873,2367.028829340481,-2861.8146975618793,-3371.8739574190113,-3623.3452408956437
-3622.45422419253,-2977.1411381014195,-2829.7245043760995,-4257.968277753758,1185.8673363943126,-3622.4436933754055,-4056.536818848843,-4277.523829805703
-2828.1887205537455,-2472.0219239957614,-2379.359529351128,-3085.8965634976466,-1449.3053758002916,-2816.2158382893736,-3080.1161040177158,-3167.1354660594884
-2649.978437632383,-2449.5602008145474,-2419.2840309684134,-2769.501208844948,-4041.056420217049,-2699.886374377948,-2773.725622691956,-2802.381585465466
-2503.787236762426,-2382.3800731438237,-2398.1494806325522,-2544.8056040751053,-5682.5090284527605,-2610.2040631288714,-2551.9941782767146,-2479.786954221614
-2404.3677138250214,-2279.7335002112313,-2398.0815591710675,-2537.8379457551255,-5923.048462401217,-2534.0428261556517,-2451.2758675584987,-2354.5992189441668
-3111.0403568953216,-2885.506259434889,-3002.1161751060363,-3580.6160023028197,-4765.469555032143,-3291.7403901805164,-3263.3227002209214,-3277.903954813675
-3083.579275647897,-2795.6582382540846,-2868.6724236426253,-3704.7283275774134,-2196.597067224111,-3155.4857155046648,-3271.7919437387736,-3376.00001669196
-2983.5187072318604,-2612.6673036947523,-2693.1991097060463,-3660.5892000884105,562.5362049846135,-2901.4570504936437,-3194.4773005472634,-3426.6286500365204
-2840.222782173745,-2347.085681501476,-2434.091146435956,-3466.19964456257,2814.925842957142,-2678.925663986316,-3196.3996798926655,-3425.10321073619
-3125.4807476525166,-2492.8803071800867,-2519.528719606049,-3693.7058327761733,3311.6780816559813,-2985.131287349621,-3558.17927150982,-3789.4377642795953
-3235.497039272701,-2698.570782424178,-2740.0052991339016,-3633.686068846164,2217.3084455178573,-3065.1237519826755,-3547.854909757949,-3762.7118897990767
-2908.195833036767,-2556.0626863758116,-2638.1092779267237,-3039.7206534552715,-260.8383475857231,-2720.9460594323573,-3040.157789772995,-3204.82244496535
-3264.8026645779973,-2938.799942903923,-2970.4892164615485,-3394.5068465440672,-3470.1167842546347,-3246.19959992875,-3417.8691960976357,-3465.8657633603907
-2679.1290568868244,-2509.682866593659,-2593.0108021964406,-2618.6158245358165,-6328.334108949755,-2663.6331222545778,-2640.834993600409,-2594.8253049650157
-1505.9810698483852,-1527.9980280254204,-1680.5848075497852,-1259.4325490677438,-6124.212668336593,-1375.9423466818625,-1288.4906062353984,-1202.8943853736782
-611.329234519566,-793.7040921325934,-956.3006890343422,-375.29675369505276,-4699.20989051272,-377.43385561694595,-365.2949634758479,-329.0814081140634
-659.3373080189413,-696.0239442447601,-805.764958203963,-727.8312085535508,-2166.639721008254,-413.9476558887618,-658.0799532515812,-689.8802758638267
-1231.3972936232167,-1077.4523273212508,-1167.5654775164003,-1595.531998978011,605.2652443189036,-966.6104254570164,-1350.768849869506,-1514.9534473147069
-1021.3201579346351,-800.5523800599367,-895.0854404077618,-1364.2336310507453,2839.4435787167968,-617.6333770560886,-1156.8908027224097,-1374.8747875789413
-1149.500202215364,-836.4096229211791,-920.3818900148435,-1393.5695539956796,3386.8825725842507,-744.3544646790397,-1369.9523370088937,-1541.7118812305853
138.67535181467974,155.72876734004967,-5.473252025538386,308.83813866911805,2328.925974309528,680.8449829899473,98.04341854325321,41.99953095220553
1126.700116713815,859.5392491641105,660.4690633664322,1574.9202321313714,-86.1203323019763,1691.392413487134,1228.874866271166,1289.815610653568
1127.6178464811455,727.5531682076689,492.84575059556664,1563.0617807502058,-2677.438008431156,1540.2397926325211,1315.8801286159505,1411.3295410489009
1489.3962553349556,956.2633057501444,661.2201586915216,1959.993798838208,-4706.241575954806,1797.753160973807,1789.1254795333007,1966.7171148764392
995.5893344628057,594.391712294957,312.1621389565189,1162.1850203850336,-5115.385503858335,1146.5033856800328,1139.9234605104502,1341.324433433052
222.76179998771113,-42.34257353593421,-244.05179925810444,151.05940717457997,-3898.0689378916177,311.92162846747306,258.5301330871953,386.8951214080007
460.6148271830607,249.00811646643342,41.58423641795525,277.71226602307433,-1276.811170032095,666.846646196871,433.35640513036196,469.20548211606365
-139.3942350310208,-187.1860359180755,-326.5205394720833,-601.2711001057905,1468.586092509664,63.55210477056971,-346.9150471087851,-443.8739714867843
-1.9502736522845225,39.278564958298375,-76.25523220660034,-410.09391375949053,3708.322492768202,324.3334214461356,-274.961461141771,-381.28177549400425
-336.88567002418495,-184.2658531409179,-280.1355080505127,-702.5980986771974,4210.444507981239,-6.664456717688154,-696.9080817040303,-787.6094126870084
-1050.5270382616582,-863.9727544807029,-873.511250991909,-1349.152419082413,2748.5821742878215,-803.1205174364259,-1468.1065454950513,-1519.361918448929
