-3970.2120410822135,-3349.766255557671,-3449.692324277652,-4680.02207671056,2083.3149838107606,-4685.250650437858,-4332.299494302588,-3964.2956282943173
-4186.586610266725,-3520.1835944011264,-3610.5119595143424,-4874.00710287366,4208.548377614123,-4849.296881175276,-4619.177497275767,-4209.616433000529
-3303.0568938725564,-2687.68075798272,-2729.5936685745437,-3612.3460864044937,4409.4738306879535,-3678.505644064082,-3638.2357327816007,-3368.8078017901835
-2553.657430677591,-1868.3674768936016,-1821.2965952453105,-2323.697421018889,2335.2844056214726,-2574.860074194983,-2792.034383347027,-2927.028778926331
-2395.1101700741037,-1748.006105460976,-1635.4367488172484,-1922.3577898744988,-916.1739210186788,-2289.5777204294973,-2233.2467432065678,-2422.223363654677
-2538.61040531069,-2025.152369878635,-1911.294364519572,-2112.681359989663,-3572.0735489427825,-2517.475916134663,-2120.5688195371804,-2094.035092563463
-2973.2939824943132,-2457.0708317883746,-2390.7787857389103,-2737.443972191748,-4435.915537548468,-3221.4462649797024,-2789.144243806626,-2653.1212205663214
-3065.3230629406207,-2518.439771323512,-2545.2716967694796,-2728.2729140259,-4486.883476128202,-3376.717490223353,-2983.0104580017432,-2828.898913616522
-2586.5668614354036,-2166.7206814313286,-2223.2905883094354,-2426.0797532669967,-3131.9480575683974,-2850.1548863183125,-2445.9545933664303,-2345.642364274019
-2618.2155142272604,-2195.0178453052504,-2196.40567422027,-2704.9601076389627,475.3978240443971,-2809.3749218244557,-2450.5716769515093,-2483.4712192984334
-2557.953854184765,-2014.7921341905203,-1983.2746156035537,-2593.314812629258,3695.295089666536,-2554.523463697835,-2355.472800868396,-2532.7121805478528
-1986.6764591404863,-1339.2550842513083,-1302.950639521623,-1832.4109983556664,5792.488111762717,-1755.981625440938,-1747.5826732857786,-1991.4989301951973
-927.5210520482942,-461.5973948431201,-395.614295979718,-634.6602628076143,5975.51752528301,-598.5843399571095,-670.9843407217995,-760.8519917652084
-376.4246372319758,-79.89630526092515,-24.29517977294745,-38.54542037966894,4825.584588043352,-182.13173621452734,-307.9091207608799,-185.87780297254358
-968.2002189756458,-695.4603248966341,-578.4016300072362,-592.5625730380561,2988.037157368035,-868.8298729587332,-906.095061502012,-705.0786496237997
-1139.5784918770732,-911.4122430242387,-732.2840554578906,-588.8511618980847,139.21254578425578,-968.0592029624822,-752.883301221962,-733.5590987760079
-352.88961484257015,-209.8894432264533,-78.73603971035118,292.08131723127735,-2869.2108602932676,-206.36945744993136,38.36157640422607,96.44258037429245
-1170.1050148005015,-894.4201851712533,-867.7625656377568,-901.0057670069218,-4189.03654840542,-1283.688355175189,-1017.5622255319468,-922.9608709558015
-2300.2025398270416,-1905.6234342780772,-1946.9198242943712,-2416.583053050126,-2834.9698313823083,-2567.5889964032394,-2221.386586469831,-2212.1115907057465
-3000.5496754590495,-2492.8053200178474,-2577.7052509066343,-3304.6093530062644,-50.90350871270857,-3266.2613642588476,-3001.976853833541,-3057.556368787431
-3082.439152994266,-2489.1538233964675,-2586.4812643627956,-3321.791614305308,2982.8853045210435,-3255.771509691651,-3172.5786585526803,-3198.9008894839717
-3161.8221313083413,-2437.6756655249774,-2578.25569244293,-3395.687943175595,4828.345422762963,-3278.2442113642974,-3333.1402425191336,-3416.1190701039377
-3943.4998147792357,-3124.202271119095,-3281.845394427539,-4224.747314543536,4758.228053702624,-4070.1582050744837,-4097.794969369781,-4233.088091116602
-4098.235833231054,-3315.9697860165325,-3409.8228056689695,-4217.225965092497,3009.823818041543,-4226.094650018174,-4275.489391646523,-4352.116720689781
-3507.341903943816,-2949.2866440802827,-2962.8023509578125,-3405.2788326835653,214.69359474635712,-3632.40610928923,-3595.760819276271,-3548.2965498324556
-2620.091920988838,-2248.955823961078,-2269.364951667776,-2425.9594067224534,-2623.73809663911,-2910.8497914995532,-3013.9955578908557,-2609.9497445527086
-1858.0232799081496,-1596.8735931013216,-1629.117305824111,-1607.2883465560953,-4996.797301912633,-2012.3827451805846,-1850.7124059768903,-1621.6555685017229
-2345.8164777014317,-2098.2649343483426,-2099.40377231787,-2218.269981536978,-5332.347079834899,-2307.810420608759,-1611.834452953699,-1935.480438298473
-2040.0377177263435,-1785.0649224461667,-1815.1058041255892,-2043.879833262923,-4282.142029609371,-2094.9784367222455,-1702.4222372772347,-1811.7081424771022
-1785.0208871717332,-1497.7516080739224,-1566.4821887409635,-1935.378586521896,-2340.3367295868593,-1861.5486038894014,-1736.6181382147624,-1749.5201470797474
-1777.8276934156456,-1315.912077950161,-1405.146392023984,-1973.099537879374,636.0175779035462,-1867.8322065938555,-2146.4190231852845,-2013.6974890235142
-1871.3633733111637,-1237.8890517697,-1348.4955431063427,-2071.393349854392,2470.2588696507546,-1841.1799748190679,-2294.467514526259,-2260.270342187825
-2670.0957473195303,-1975.7928047583628,-1997.982103006383,-2809.0607127137337,2291.299865010418,-2586.270494651224,-2648.9371202430775,-2772.459355227402
-2007.400916847604,-1498.8767927917943,-1470.08682639162,-2071.727237393541,691.9277192149202,-2196.2457519172603,-2628.3579429476376,-2465.005284940038
-2085.542320440756,-1652.9747625265882,-1583.4935279602214,-1904.236131566562,-1997.9692019595695,-2005.0467514903867,-1908.1060056136484,-2025.8965028262755
-2350.6057234577456,-1964.6097731913178,-1824.786094188341,-1872.371576207588,-5010.949840377844,-2037.3471898822463,-1602.07839812382,-1765.983901736865
-1717.824155410126,-1391.0674166152749,-1246.1383220329153,-1167.82032034258,-6594.490001278332,-1456.3711308278143,-1204.2618579884147,-1285.3975500093948
-692.2526936626673,-513.0853673581732,-357.1016267461673,-133.731442119024,-6117.553602454457,-442.4059933824901,-346.390359820929,-334.30909513426013
-95.77688030409627,40.39973823084438,107.6820638996578,162.17933374570566,-4043.6310534197337,-58.83115293852461,-479.7946893895132,-292.3403054025548
122.14021368496469,273.4137821251934,264.51269388830406,296.737480893411,-1430.433609022657,342.2782567211834,301.7645223622385,192.97180430720618
257.94624656415544,376.3725053253729,409.39563509679283,484.28395373912645,1264.0889674877599,832.5874191799958,1334.6237359407678,1075.9853209134162
711.8992722569965,859.4898146232736,910.2497299704992,882.988390995306,3166.170810606576,1232.1008501223841,1256.4833946747967,1351.35947572031
1308.5519064844266,1340.578149085457,1428.9011185231357,1640.0620693423116,3236.057448765401,1897.269696408519,1786.9222671062598,1944.0067711562588
2075.919097570484,1982.1393510525522,2126.7305927221896,2661.547936098388,1490.2093493586217,2726.7427065508527,2520.3902679024322,2568.8291110998834
1851.5805300383363,1727.4852499423578,1894.098805015623,2508.3063871950144,-1374.1552591543996,2373.719155530911,2285.2927541569225,2123.08898948961
1825.0299103055731,1638.9092176429185,1815.4447285982824,2469.6673548663675,-4591.413694668971,2228.261358050411,2219.141454423516,2179.571593836561
1163.6407984713878,1047.4697747243772,1183.0248169390761,1608.854371585403,-6414.836286658521,1333.073173564684,1476.5311833940796,1437.20916451847
165.46513855629019,168.64908554074646,256.50226300138456,352.691798329266,-5963.946857915362,152.4062275901233,410.6024389905797,405.4202411034348
-292.1367685551377,-129.47386558239668,-121.92041810222145,-326.39066720195115,-4519.013404018624,-307.1076038868632,-94.39086708634568,-121.47171184471517
-246.44486487565155,-108.7256361846521,-79.28840275193215,-436.9925500424288,-2367.3789688018915,-245.3720554729225,-112.74022827662702,-208.43535214276926
-434.3060538654245,-270.53401614529866,-231.31247928841913,-708.3940071583638,277.1876061735711,-396.35582319580135,-348.29171980934916,-485.25592290873465
-223.2404180798767,58.13315291097388,131.0025387649148,-332.1252470112522,2255.2317411404183,-46.96322728037194,-173.65206948196283,-288.8241513811081
-587.6926085486339,-187.4604021978157,-83.14765161067771,-523.4372012358508,2154.37843761313,-315.82330428485875,-510.502579429929,-706.6964715136564
-362.7069585507852,-172.3302041525385,-47.73659407728701,-221.09832622786053,328.57796009352023,-203.1929127775511,-407.6183067862148,-390.2503971052647
581.6055103138933,370.0487829751655,477.91210580122424,726.3146683998493,-2395.9272171179073,553.7060899277858,443.26982150050753,872.235519017122
1310.6606023442873,819.3121468122336,938.4622748303009,1475.3975684510806,-5539.995551323667,1170.2898041640146,1163.2227343130944,1921.4586993897537
2091.9709897628927,1717.343076697558,1801.85338623821,2563.708418468741,-8550.72787307352,2225.621316560748,2383.081717463996,3001.991220057447
2250.329018633449,2004.6498918164943,2049.7529996583326,2783.9081040793244,-8434.367200006272,2545.6317276547343,2646.2812977194553,2653.2246120492346
2669.871766430966,2543.3618907071213,2590.1762332113503,3272.8801454003697,-6392.7859177279315,3124.8174905504275,2906.8356239838176,2721.339871635835
2705.9827700246533,2640.0774083324795,2662.6736844709085,2919.4261542214663,-3387.0613709488753,2790.2345387198293,1951.5722986605833,2053.339591160431
1156.8473921931145,1268.79734810003,1328.1362180734359,1177.5551703488018,-559.6622342044066,1411.0359029373067,1131.8853311542553,908.0361656764653
159.71112272025493,448.4024368612154,535.2819408645955,184.27665502879972,1312.9711605760385,552.8659341560779,676.2049378691445,289.2745984305584
564.4362766093109,750.6356417103525,826.0054235680363,728.4095006276402,1164.1889186039843,947.1535876315538,943.1177185822307,672.2539232674244
1298.5832517694944,1303.1832152737334,1346.181127068805,1685.8247554647824,-658.4000785201497,1713.793781016706,1601.1246207627191,1422.6723997027148
1633.3723245839574,1441.5604122892692,1509.2107115783729,2129.837569990399,-3349.80777713679,2035.0166027099258,2026.7273767496663,1872.320877315251
2140.5160676695887,1814.3315190053545,1899.5017116714444,2739.5396887801908,-5985.479873771328,2505.751106119402,2595.206955140129,2504.570280800668
3222.6671417907855,2758.9640958419186,2834.6290081855914,3934.5723350812405,-8165.024344346355,3650.410936204331,3745.287613114,3764.8741574438027
4791.489576845997,4086.4582669758165,4146.696221064827,5548.779105361471,-7878.621364649764,5275.369401645978,5369.651880697122,5363.197165572063
4611.947745857331,3932.266645973068,3932.315205725441,5022.568162381685,-5783.699507916404,4946.2571282861245,5067.861303587866,5010.606743167664
4480.382938113275,3932.558214708457,3924.6315197752992,4833.603631036269,-2832.63030828895,4925.244459208574,4941.415866833086,4792.8080436456585
4862.03280425875,4324.617466705713,4358.6088892851985,5162.200819393551,93.97357171068143,5328.032747520352,4940.371168386417,5178.482156374961
5015.002762687989,4520.828305796174,4587.503468462033,5224.569360607689,1875.7853308929189,5387.368876232522,4786.811966152825,5073.274951691634
4141.237532217125,3756.8232411072095,3831.055728800173,4352.4821201449595,1613.82239034948,4580.0552125905415,4441.8192332902145,4391.54021550313
4432.3025397451565,3894.7846324187776,4044.3141397613745,4703.032921147742,-463.7905841167376,4683.951042021687,4386.085212560032,4635.181578983158
4382.609654714008,3725.843702392036,3909.327015195382,4636.691297162635,-3257.1008999104815,4440.286368237157,4147.27675667069,4572.255444938442
3867.6901603332735,3337.652713020074,3514.0055522301614,4184.976754026074,-5610.243112395197,3875.162202460475,3527.1664733418165,3912.599151708322
2627.285634617161,2279.0074936348456,2415.377880283695,2785.079731066507,-7096.32386305269,2461.255802521904,2316.8070536583637,2529.3610929849883
2315.756257018067,1831.0949216025388,1958.6361917927707,2434.6809753373213,-6740.8527675746445,2251.4500477949105,2793.751481479061,2934.196522212542
3038.934071068701,2480.5495557650165,2574.3953177827075,3103.283040751075,-4573.307925581117,3077.7080763407175,3504.963459726494,3596.679148527378
3137.5297771257983,2670.3671658069975,2752.6595614688113,3148.641644289832,-1659.726130891795,3404.3437341407043,3598.6464915540255,3428.6082339173827
2581.562777513099,2303.740593246822,2351.6240322742015,2470.9871505507454,1141.9007522051834,2762.9686077342208,2726.774573677575,2602.6604311075034
2525.5180579137823,2311.2418885207508,2376.7690261218104,2413.6412554218223,2877.274026754356,2713.76257363541,2587.080305617038,2472.71537295257
2566.521026922669,2341.624538592583,2424.6848780075215,2572.9754500488907,2722.6811858809087,2770.5332317560906,2565.891784678208,2506.0740665547128
3049.876222435185,2660.9082929784818,2822.2009586999775,3264.635640049366,878.3680476454902,3269.557330412794,3118.0348835117948,3118.4039306110662
2910.1523152557147,2439.883743790231,2634.0596713127998,3194.3442500535166,-1822.6652583163523,3021.792550027005,3027.7274123574643,3089.8999765897624
2675.6037639734313,2240.1805614074146,2435.1339828222954,3072.655451833427,-4306.410067836623,2771.5916927387207,2770.5113771790566,2913.0408454332683
3630.791681843506,3087.443375121624,3239.3072375729535,4131.024476603525,-5467.7034703531535,3827.8589545843242,3883.606819206696,4102.999266008395
3721.6927747414575,3054.1486592932706,3135.2805276813124,3943.6566694993853,-6019.614708086199,3733.105073167124,3873.23762991251,4072.3154039473375
3310.600191827958,2680.1338966351577,2708.9204512710894,3201.210449091486,-4155.647880258883,3141.507867924396,3274.7814135077533,3469.621644649713
3015.725074714297,2441.0449216875386,2462.6730818165997,2712.6311623790825,-1219.7603878668888,2839.716911507574,2965.1776847014917,3051.135757690623
2544.2579324510443,2114.7325756619684,2118.2816474813953,2179.2629288271346,1637.9259426366334,2539.8166796208534,2643.557316118822,2516.6440521435943
2781.5261192861035,2515.186936206035,2490.8014573875553,2585.2942391439065,3400.098411977291,2837.921637043124,2680.829958127986,2637.451682011517
3723.091294307942,3293.9370573851556,3318.5508687922556,3790.2648961766463,3381.792351727883,3963.5541991900245,3733.6781454725206,3772.3147680726906
3525.3193491432576,3063.96278312894,3173.1562131082464,3635.93437432254,1328.9928848726704,3638.6707024537245,3439.1437468138247,3569.2502393246978
3188.2281279478993,2677.9241226641534,2836.277032611826,3412.7901797265877,-1528.3806774078403,3219.1263016122175,3174.3667209156847,3318.611310423199
3137.355346039032,2564.454383500437,2728.7935080115712,3436.2727937740055,-4236.27032828638,3111.2384969678533,3153.4868859789785,3355.6432102451217
2253.419788673178,1829.6499560122174,1939.1288574761056,2401.9316122728487,-5522.611620046606,2043.0459033379593,2192.6913532401377,2375.637836650094
1630.2186493640547,1302.808767016635,1381.695882804961,1627.2731245878385,-4820.118696745572,1388.2657962609155,1553.9207745752065,1631.0501931424587
1453.5308839826102,1155.087165510413,1183.6367656379734,1288.1143171584263,-2867.965632266627,1240.0089606538822,1415.5918164615432,1414.4824127096435
1758.4398674668846,1494.7621491438986,1519.145441805129,1547.2065545768128,-40.82730174140306,1628.9954079285671,1583.1706989381128,1604.9962064524007
2410.343340931482,2138.348472990918,2088.810802578526,1981.1221254021802,2820.4402583867777,1950.7494248394214,902.3622387035866,1411.5195979402051
3061.153757878259,2764.944000822208,2701.760443008585,2655.555185077843,4639.005548292684,2626.3696187368623,1487.852910484471,1916.065420562889
1094.0997779168974,909.4008216583388,913.4031997014026,744.8726167678979,4228.148390993752,1061.7831005878033,1672.9231200000067,1519.2730559401098
505.07548998355196,405.27036824768584,514.9156945954892,393.29658892925363,2250.7940369687713,519.8140301308158,895.8528303334242,703.2904270319268
857.7941233812089,640.9836589209008,829.6916848139008,956.0577223614819,-576.4660132184799,838.5468328419956,966.0037203954853,911.2183919005183
794.6026553646807,472.4853244826518,651.0395393564613,932.1254602160043,-3000.2294032099016,675.789092880048,868.2410638972942,886.5702636569185
538.4150681489045,212.33409979979479,288.08938323443,493.6465153836325,-4720.97228138824,223.96266740069404,570.7205290504353,733.480814842289
-629.2996622211649,-785.8643152130971,-770.3956378794974,-985.8076015808329,-4960.556620717252,-1096.2970540509268,-699.8738659362425,-614.8918902675214
-1323.165535661814,-1260.435423855808,-1314.8443979612202,-1801.0520894683577,-2968.646049562667,-1806.178353497773,-1475.041000908066,-1638.811502304161
-1432.508513897541,-1243.56902318239,-1345.486893543457,-1876.498925174572,-13.27797419813578,-1687.2037443077206,-1492.7175831586137,-1851.8453392551455
-1253.0712154177963,-1061.3277128220434,-1195.5038525967466,-1703.252440782766,2745.1396122608567,-1342.6847499933792,-1340.8155802419278,-1615.9507280327525
163.35199576373998,247.22963041078765,181.68093299616157,-36.786222018556145,4598.0700606974715,250.74542445790576,70.17611833602132,-71.64909685691237
1041.5668581927312,984.3606728736559,966.0753651076448,1023.1154104118614,4492.510988201015,1198.1936789531392,974.8930585362687,879.8121103837038
1480.6427627429584,1290.214578337691,1276.031257994924,1542.0562966043653,2510.5101765895815,1527.629895674596,1168.1602377418385,1301.9576548068726
2254.907332521703,1908.166700093163,1918.9939373878224,2526.2754339749226,-258.56452662477386,2273.6878550454785,1828.745232142457,2122.2003864859435
2681.399074624649,2114.5286888910778,2116.3162794520467,2889.2615746632364,-2946.495449275055,2562.4941426597143,2250.928298883082,2659.1789579370816
2487.1616741746475,1884.9640232713646,1833.9064157276807,2565.1262517303985,-4103.3474980945175,2262.336615202701,2216.8922410688538,2743.20685318092
2300.1215791255963,1611.9777226771475,1529.3401177856576,2274.920351400826,-3494.4780269865296,2211.2819246206636,2755.2714261255023,3086.890738675138
2597.7346205298527,2007.6065723282736,1960.3769742746808,2635.4939750094054,-1415.054111283418,2644.028636445306,2891.5314694820117,2780.4579113253712
2404.020750557218,2066.806093514533,2003.9224145878688,2472.446472233525,1514.6330571836152,2647.4046970140625,2663.0808211010153,2269.5923999905353
2027.100090772612,1767.75955322363,1664.3981661327853,1849.8676806441508,4252.514926722826,2149.3354150681116,2054.2608767734346,1808.779850064093
1890.7913008968317,1791.5772348661121,1593.1638947110914,1641.8975698292052,6721.040203287019,1991.3267458374612,1779.2173636082007,1621.0045925741142
1606.8034301114676,1618.8631423200568,1272.162356353685,1354.4843595822167,7720.669919481588,1730.6340175943333,1424.153744197538,1352.6626102034352
970.7056137576437,802.2566748460376,624.2044427828077,796.7257649644016,5687.546440487175,929.2773099613114,694.4975683433731,633.4229103625985
581.8283728833485,332.6912963664945,205.59773649391718,347.13247211302223,2760.0074757902767,188.7650913371035,-135.25919779592368,70.21249321418873
254.20162315157359,-6.334221096360125,-171.50960387654777,-12.917814666143386,-734.3563250133157,-375.64807483130426,-819.260644337468,-477.50811244630313
-153.11571849307802,-360.18256683298387,-485.4454853997304,-189.28230639279354,-4202.845494451874,-296.5360909651645,65.108738592171,-48.85436025164381
799.8521964737156,439.56778826644586,312.0988383632648,881.5425466487359,-4372.903784737195,876.6411511947226,1238.014657450709,1152.6776770931465
858.64210704586,532.5141052942781,329.084730163333,633.7822869805677,-2050.723158318462,731.5889807259518,902.2907866227906,900.2283856884169
753.5768317597103,485.31621400303266,255.248700466851,403.5231177254027,882.9455569960264,647.2568610237649,701.252872537938,626.4320065242209
523.5648062458931,362.6524463115784,152.96648907740018,128.8509159265668,3621.793432750652,470.74480389987,390.8221461305948,250.67662387782184
768.5053066462569,699.3158813435002,492.93702189592295,421.12274735906976,5092.416722494949,827.6653720342874,583.760178852317,433.52691240909917
99.77778124592442,133.6991142311017,-28.521727814601036,-241.4414037725801,4870.118287059158,83.8021926364745,-126.67562672903296,-268.989818580274
498.8966346028319,398.0283359791356,326.54169439886755,395.0755389767146,2907.6834146387846,521.8989516120491,336.66443391508074,302.90339832531754
594.4620294488268,390.55118586514436,361.3807894624333,581.0094191756652,180.98004870139994,538.567699570558,483.08928392142116,500.37999629396654
774.1619879053324,454.8948176916747,481.73173177661374,864.4678736668575,-2212.6372579105373,675.7524006144376,741.2426576487778,795.3091870058124
1159.0887594139494,754.096889755252,839.5809533789143,1302.6599495254777,-3071.037943434174,1057.3081125145836,1229.0529410349409,1315.6774769472104
1495.747931174541,1028.4963657439366,1108.4606343556661,1567.6421519509604,-1971.197166918515,1408.5609274879243,1639.0422412138141,1714.1586435801582
1050.7481308584393,635.2697200118419,681.8364949357638,838.0846534960583,1162.343960399361,880.3703185697959,1036.6364940658677,1074.3982801342208
268.6028824256937,38.153777222993085,34.58544784398691,-147.08661298065272,4803.601251187982,64.4018307721999,132.96181267239444,78.77519464037323
-933.3085438544367,-934.0314399500785,-1079.1326862661226,-1639.4735383604566,7381.320909000977,-1267.817151639887,-1294.3892048668495,-1389.1080164730665
-2788.6160202700266,-2507.220635148624,-2746.115533594362,-3789.418438131441,8470.520483500179,-3375.230832024812,-3441.5110552225087,-3522.6773076301324
-3114.0717362484866,-2798.551672604677,-2941.2477399304626,-3815.526259135586,8214.103785657906,-3549.475739167581,-3634.2814324339124,-3761.7920972840657
-2779.5565316271095,-2587.6306242232677,-2615.789947923302,-3240.359737399631,6243.682951868221,-3245.1300197054807,-3355.3229774471256,-3371.3826072894444
-2004.5264730984054,-2010.1857862944016,-2032.1875033860124,-2294.9694969420234,3531.971587337466,-2425.315337236476,-2402.23474822774,-2328.475640783159
-2035.833510460492,-2101.2694272409426,-2084.255495821344,-2167.949070982795,755.5019914746808,-2247.6350311235583,-2037.2876581620076,-2174.329743345559
-2923.253653713531,-2815.821549974171,-2848.7575757003797,-3168.1846209557116,-1566.9487420007936,-3276.2806787363807,-3041.3323788618873,-3150.600652335692
-3342.5691547811,-3195.9351817138377,-3288.4770262394522,-3833.189357316878,-2665.6515230127698,-3839.924621936836,-3590.4979206800635,-3645.250902029278
-3108.30268055699,-3013.427481507766,-3159.2205470456975,-3779.273552674247,-702.0714394570532,-3727.151439912239,-3537.1055170003237,-3473.8851020050497
-2910.394543686576,-2757.2983314915546,-2966.974669694857,-3597.100171625905,2402.5862229023187,-3299.078045576527,-3163.056381041388,-3294.6212478892703
-2540.270340957002,-2319.349191486959,-2490.828065464353,-3030.2791272399263,5290.417736266929,-2536.743803917154,-2458.395730106131,-2883.2126628419574
-947.3140128322848,-814.5041041343356,-954.0060152548758,-1148.1524763446214,7086.534112004854,-794.2793500241751,-1055.3570829224846,-1227.2992303382707
889.8667703633619,715.806231202514,600.1060875503317,922.5566213830971,6740.096122300958,1121.6923684396897,718.7007581668367,729.26560121691
1625.9626804634463,1274.553010468284,1185.4961149912342,1798.0092720323883,4541.653200182445,1940.0731355327225,1545.5870237116324,1472.3487615688719
1193.1065451988616,877.7914276607844,841.1295122789743,1464.7592572487265,1761.8499880058516,1428.490719615489,1132.1747157305945,1015.5329837236059
1091.9275017948457,715.7847286511824,712.2490789988733,1455.584257318238,-837.0553403414597,1274.9970310661884,1353.3658584426812,1274.33884128902
1193.7470908967152,818.963397389387,788.5344716428372,1499.3014967193449,-2238.3934738884927,1264.0207359291962,1383.76704168968,1384.9844727778109
771.5724799507079,441.0047793884223,313.073342074611,824.9990487479226,-1832.6039356827023,690.8788372768395,804.8908829203283,803.1100841131265
-376.6678487934987,-554.6379634857294,-727.6240144623371,-703.3826566232747,263.3261174590807,-624.3298997446109,-487.1072584001813,-576.6013062050188
-964.454898051481,-1005.7361588307249,-1172.6543794788886,-1448.622283979843,3130.663524174044,-1180.6596828515103,-1176.8798948766344,-1311.6693312041607
-1779.8330661730652,-1646.4038677872668,-1789.348598261393,-2382.585704401419,5950.135105487461,-1998.6710851380703,-2062.7021348525377,-2259.450006025312
-2470.4805507589044,-2164.4319739596176,-2277.572202209856,-3152.1979342863997,7327.422127658094,-2724.8320152868546,-2874.1925460035272,-3080.67362823421
-2938.4873101910634,-2595.4778715182256,-2679.997110046439,-3516.2478369365344,6847.888696146627,-3166.3238979120215,-3338.673862231153,-3544.8585039601094
-2550.2441667491294,-2306.0793558412115,-2326.2696566250306,-2846.2596825697765,4790.325901525332,-2662.0138679214724,-2834.281051792008,-2981.355890345745
-2338.884046620289,-2176.9949500469593,-2172.1370620417947,-2541.333512362842,2019.930649568967,-2544.6561219518553,-2715.844424518,-2696.5179252169837
-2070.033270827713,-2011.835552564502,-2041.8984992674377,-2346.9767274035403,-995.2883517203481,-2593.514337258828,-3153.4057347823036,-2844.111640079849
-1948.408511662412,-1947.3968554465246,-1976.2746142591204,-2229.5984664265925,-2884.100830212057,-2384.873771841405,-2575.407762079165,-2462.4402415006552
-2030.907378175987,-2083.732891227308,-2034.6740713088948,-2206.6618489449174,-2540.0601649133387,-2096.794463262733,-1437.8000422031982,-1646.5316769521523
-1915.5089014065088,-1912.178968662076,-1913.2708207336327,-2294.5204425673874,-387.86178354246294,-2091.6356382695594,-1793.6478071609818,-1915.3413693675466
-2101.88812260134,-2031.788823605988,-2100.660897509275,-2715.78040378727,2517.4479024274333,-2374.604796968335,-2282.8413027069255,-2396.7945541405134
-977.2144406121879,-1062.0688334321385,-1238.1712683939186,-1812.5537225919834,5313.844941806918,-1590.1486997890825,-2281.5016282277793,-1735.8112427494852
-303.1922141730829,-417.4211157736063,-696.0948397399698,-1438.3410368707919,6847.638244863883,-1412.7152024030438,-3079.6591527928394,-1897.3973261123974
-2025.8748261222063,-2012.7860312177618,-2159.1245100296037,-2752.175629842968,6243.510831111684,-2258.182281401736,-2122.3163200447634,-2085.8831500604574
-3096.781762312108,-2827.5797697887683,-2840.418194049038,-3169.5721818597085,4113.971605304816,-2713.5633295492953,-2074.132880750145,-2669.942391603625
-2470.2918069956722,-2168.8824994043425,-2165.690597330904,-2180.763073797898,1400.6467485772337,-2079.504985608237,-1924.5702867579348,-2640.2595490287713
-1995.263075610921,-1858.231136193106,-1867.021665454893,-1708.5447461440563,-1275.745614764939,-1751.4698775313955,-1533.7059074169192,-2020.6170825457339
-1349.7539799363112,-1328.2202390785314,-1356.8930524705684,-1110.687409661452,-3283.422481185711,-1144.371905517426,-874.1411771827552,-1220.4347142333645
-809.9692882106574,-860.3448899130381,-939.6784082504273,-701.993048661876,-2678.69179110225,-650.7327194835161,-388.17565822221513,-799.0903587102039
-1165.7619537753562,-1204.8565205085652,-1328.5521787540165,-1470.1685449722027,-458.83489650970114,-1254.7460744087148,-1015.7648046785689,-1397.1902526635567
-2303.8620540357224,-2095.488386430876,-2269.2495680380416,-2900.4381615380007,2317.3264459587663,-2476.0257663551165,-2394.052661964608,-2854.8322423928803
-3347.10853064631,-2944.6538945446446,-3110.3486162182,-4038.6378426702104,5068.124162342553,-3442.431883296733,-3538.414916013033,-3995.3114888768614
-3311.1910415269595,-2846.46072432646,-2990.183393089912,-3948.54556643095,6545.638177912403,-3358.0676716187936,-3584.0390960810655,-3905.4904168040193
-2877.7474157232646,-2478.7307045519265,-2542.8005502597116,-3300.77057889557,6163.710242313359,-2864.5183215108464,-3074.1214889980056,-3385.5844113163275
-2644.3992753672155,-2351.5560801426227,-2350.4282036440636,-2877.361638465036,4002.77106021885,-2625.2718475804704,-2824.590186922136,-3085.2557225848577
-2522.167552158149,-2331.842330751906,-2330.7214998849795,-2683.88990564669,1207.402655284337,-2601.8498665920597,-2711.1986452237697,-2866.55716895538
-2821.3804946002165,-2672.1220723223278,-2665.0270711064577,-2983.0868156662173,-1016.1980269592896,-3004.2380249815287,-3003.246233711371,-3096.8227198497157
-2956.2291160374543,-2833.824198485613,-2877.6138965362643,-3143.8379619974876,-884.2276656837548,-3188.781569948749,-3084.1218488621553,-3159.16856229808
-3463.0624720734995,-3293.5745284049485,-3415.842555416583,-3855.8479946886296,140.11010193159564,-3769.920319055883,-3637.006807977192,-3721.5521655137245
-3342.6811030270715,-3207.15144801457,-3369.5252199588676,-3868.58041182165,2031.2883428282566,-3585.8110837413005,-3513.5423303772923,-3660.3608075880666
-2848.231932125996,-2693.6137709575496,-2865.936074206081,-3410.7120222917765,5009.169933554731,-2991.1491127518266,-2996.091719091266,-3187.8465505996774
-2209.3426394108774,-2016.815116811118,-2176.0956311761693,-2676.58766982825,7830.831505361442,-2173.922093190504,-2408.113582256179,-2635.5514464916923
-1204.6175992534909,-1067.126826613261,-1182.544363290097,-1501.4622048724104,9364.809395541437,-1010.9168762739573,-1447.0024594714869,-1606.2256062145643
-472.3488787174301,-467.30593207629136,-527.1727725182063,-576.9322937929646,8912.389372126723,-140.29984792756477,-532.7825395551008,-707.9551157012047
-273.0075707417236,-356.7174427234313,-334.46612868947886,-203.48090398571367,6737.22428353165,39.01801357154909,-426.76816752418927,-493.1817992759352
218.16504093499498,-38.475616544479635,19.523601544879057,434.7927762695217,4004.477898834768,381.69661848205396,-131.01564966876867,-41.501825557770644
890.6811520966658,473.1584973775898,547.741174011584,1239.5323147125073,1617.8148171314242,1111.006781658929,787.9204278404959,860.9236613421235
705.6663701060152,351.5678148053739,351.9151118070622,1010.464076156095,640.7192973319179,908.6621023224434,979.3684744016391,1053.908208857285
368.29207365678303,318.462544787415,-25.111885986016205,546.5720785140493,1659.4929171248514,435.43910601363314,403.0253420859972,622.6409265692473
911.2724860918315,547.7415518271628,421.6426641556063,753.4881625615017,2718.738147716569,858.3747674724218,746.414407786815,953.6888958169129
1069.0507567812601,674.9001929929855,553.5786021076856,768.705639963222,5528.827419460627,1068.3214969812343,727.7828843610969,901.8592848683747
-3426.161250333782,-2630.1918958758874,-2886.7060220034086,-3273.1718871409043,-864.9675871435074,-2928.684142053379,-3174.4221229010022,-3367.9441472486888
-2696.9249673860295,-1876.0351435264397,-2157.858027619793,-2430.25401401952,526.0969647952203,-2222.501185200964,-2606.261527703851,-2666.9848184811935
-2650.1264332116434,-1865.2812419500733,-2054.623897267198,-2235.595560325527,141.99814376472654,-1951.388299684405,-2260.970421803504,-2542.6180991755145
-3075.1399508826107,-2321.1292350387976,-2416.577192577385,-2450.8725839874014,-2007.1423339378284,-2275.110352677092,-2429.235685990714,-2814.7872932089504
-2567.413084715994,-1959.680470863559,-2062.505522301155,-1813.4755145479194,-4688.108346029303,-1930.8965859323707,-2129.9124769369937,-2214.9855509931513
-1854.5211628072975,-1381.184834394875,-1505.296942932042,-1058.4531176628861,-6951.541064747444,-1375.5092121173857,-1628.1063135214263,-1447.47958950063
-1656.4907744347547,-1241.9438613368839,-1408.1439116542733,-930.2053855991635,-7793.218599179621,-1127.6451505929908,-1158.3522156607942,-1130.3808116429445
-974.226190526213,-676.9156390257813,-815.1592519422502,-129.87514605506658,-6973.8262336770495,-221.4070515115818,-212.04705121775805,-346.74038289682176
-498.59899703205156,-229.06926866471258,-407.3185711002461,187.94257147465942,-5345.124718725445,204.64572865469927,121.23835936208161,11.313537447360432
117.59783128426352,354.536453832241,143.5100974749912,715.1053977099909,-2669.9444907937796,855.315613232342,650.812747607144,535.595225398758
813.6722739586148,1008.2551932934093,793.5662821735677,1413.418529799059,115.08199336311372,1637.4843089394362,1315.6350425835753,1226.0609095077161
2628.8570085973006,2670.697202959287,2481.277836440968,3483.035574759795,1599.6947741171607,3712.6760027475366,3240.321821229347,3202.1490087284674
2898.492363002899,2856.333528603055,2719.9377592491983,3747.3207428606256,1033.4226133522607,3912.7200861817323,3407.4372668418664,3425.328184437496
3051.798641264224,2903.238999568117,2836.4814511039285,4035.868733746999,-1041.5519001526845,4014.8146210764903,3560.5463466307797,3601.253161409494
3349.687784509325,3107.3561440241374,3065.9384520862886,4450.208900447725,-3758.47197564019,4227.919259276886,3902.101716707398,3938.5661009686937
3579.917432591555,3205.5233382861898,3170.346268074124,4621.708204164843,-6105.48325280541,4291.1554034571,4106.940191539603,4235.884910308783
3231.518676975841,2871.432008307228,2788.625608928102,4002.614065990436,-7043.17511313354,3746.9030596211887,3660.537908506227,3861.4463680636995
2932.1545800991353,2684.9757380863693,2533.9040841295205,3608.702003785802,-6739.874084431009,3399.4517521929956,3367.4584403271674,3519.2588115515837
2501.0855929364393,2370.094784394739,2257.8503788931794,3049.783779960653,-4529.4700426927375,2995.361860512441,2932.666026938401,2978.844436986701
2445.5449713766084,2349.26818221915,2231.7456092019174,2853.238516314701,-1589.2474044653427,2912.800474857555,2666.0767229653757,2730.9063734813662
2855.890063210187,2771.18182763645,2601.5613584800085,3158.3525856805063,1103.279393168399,3233.491341419416,2566.6377042646163,2685.889056524913
2130.225419981736,2176.637525126329,2017.0512885015269,2400.887379341104,2361.3946843450394,2628.076358676768,2349.1938507374107,2293.24631630522
1453.9654190149213,1489.1212406060913,1354.4594298859902,1708.9759339004922,1874.0884850925213,1919.7888584758875,1878.910934166579,1899.075821538965
1737.9374928255638,1649.2614828546102,1570.2708768950724,2175.7713272907313,-295.86970114621363,2150.002935408018,1967.8257555322234,2116.4603322630173
1438.9570858796124,1326.9116346727315,1273.337508246641,1937.8481108509368,-3077.27251445609,1735.7954219002531,1657.4367545186833,1847.0088233558745
1631.3112711205176,1466.13676995883,1483.6758409827235,2309.504314813057,-5642.877161587014,1964.1713266700026,1984.9934116306904,2094.6254884709087
1833.426577357237,1684.2396469216328,1686.7158513467766,2473.4782267354167,-7218.471654035588,2107.380258227946,2203.8339158702765,2292.8419467573913
1322.511631610927,1228.0900573959407,1198.6509568861475,1744.2275793176887,-6727.658276531423,1423.2880455101476,1561.0060195346196,1645.4690644987131
1174.6666235957164,1118.7174248482697,1020.6788248321827,1411.314268448019,-4877.200169289703,1281.7898940126688,1352.851970188749,1460.7108183921446
2065.487093213971,1918.176492304603,1794.8333759774068,2247.818431697837,-1928.8182964905282,2240.723291826427,2020.254742595309,2241.0809805171957
2012.6752666348475,1951.021116230233,1851.3785500470112,2149.005518468337,750.8824143596867,2326.37541139972,2104.2971768818097,2149.2883292559854
2359.9379572415564,2237.861058046721,2120.898969345664,2486.442447926347,1978.3083107455313,2755.4101486716754,2703.1936420828424,2762.855998274761
2168.7108879956686,1943.7242913490045,1837.4634969141625,2156.8552250569046,1327.9214874052414,2291.5547304941283,2113.063030119127,2522.252441660683
1637.7522026661863,1381.2782082884369,1365.4011119372444,1721.6701072225915,-820.6721290888527,1657.1491662342014,1560.5217754787373,1927.27347251639
1328.4337868341318,1178.237356278827,1250.1841246963486,1704.9053528814911,-3563.8974043320195,1469.3271808269565,1448.0701504255048,1486.5487753604903
910.4000005050912,888.7435047795007,971.2051692552996,1434.0437121937211,-5623.035611455372,1097.263698860319,1124.9863465099625,982.790800388444
952.5475300682883,828.349218974894,851.4791689984995,1281.5127022656961,-5766.2547398290335,895.004955832701,839.8139128382245,1037.444212994873
1828.80933627356,1574.799247081006,1577.8469436753803,2050.045941985627,-4953.577144923256,1647.0186416982106,1168.504291782585,1536.3580573533254
1114.5626224845983,967.8115324485261,938.9403715403678,1216.7830836670691,-2726.449373141775,1154.2184629754338,1189.0978387007563,1133.9691491592312
1251.1302466469497,1142.1825051262203,1072.6205702436273,1192.2146189396153,354.0039229381364,1245.6786261069428,929.441942557045,1038.1449248288336
1363.9150238619332,1355.3364632947996,1254.3104654669005,1271.4749298202005,3151.9894988503074,1407.3440883166259,956.5172025139764,910.0247655437342
1108.148477094779,1121.5547920325916,1071.0049732699408,1179.773732619724,4329.485550523474,1455.3503209555784,1737.0547661863384,1543.3170175390114
1365.3778381911688,1318.8880469543874,1285.6016263526471,1429.5764245328319,3593.5943265316455,1500.0657759622482,1262.6311527610596,1382.1266602411197
1509.3462946538493,1415.298061328991,1454.9914964772106,1825.350379260577,1166.6394770263869,1731.9118576441397,1550.7921559614115,1613.7145658222944
1290.550328036894,1124.319750384122,1217.5954649375126,1735.1648822470743,-1662.801716145521,1526.6748754364744,1623.8190092217483,1654.4475265970832
1624.3924175347202,1339.5788900609768,1380.4332046803756,1975.507045438484,-4148.544698554819,1549.0119519154105,1357.4526980969458,1726.8245509786648
1621.196269963919,1341.157250187658,1377.7682137232696,1961.139894639593,-5265.967847015156,1560.24411301261,1578.2301591151409,1831.645474079749
1055.7859439046297,786.472822719079,809.8951708930908,1220.1451965998276,-4692.681586370134,1103.8741878664005,1610.2130044812875,1582.9179153922014
756.0939494549457,574.1983094285679,552.6148960500432,692.1378105403419,-2515.0376359518705,711.172253628436,1015.9628252221519,981.8606380275014
1196.9579286614899,1017.1985171650522,1000.734619062976,1127.4211248466017,461.4140581850952,1220.1046231230866,1390.4026345203238,1383.429473871336
1276.1885039741828,1127.461026481731,1081.1942214227965,1120.3597545609955,3167.0149751918507,1308.1620435115474,1304.93519716413,1300.9963339185779
1901.2060495577825,1748.4258415808144,1676.5302422922614,1879.9336308336642,4396.254074047596,2089.4876096128137,1946.71941008851,1993.645479693805
3015.7590773726406,2737.333508503936,2724.703472345085,3313.617772143305,3873.274427253884,3377.3132767750067,3103.852726134224,3211.2938493903785
3959.8441075575247,3536.622891313753,3579.896570431796,4520.007174813596,1775.5280467867415,4339.071035625297,4023.4611048729857,4095.3388604726206
3826.383020254034,3307.122675962608,3446.8215400830013,4428.893454882986,-935.1121738532383,4243.109377157671,4191.652643295194,4154.4215684175
3271.0851849148894,2780.9958774094557,2906.860430750101,3792.065986285481,-3082.4904100895365,3382.153398876879,3387.8404490731336,3656.8810928274906
3456.948518066696,2897.157492384431,2935.506164732011,3789.248679865399,-3982.2955076839135,3369.9411455852096,3434.407809401775,3841.3248770258797
2904.9615488366107,2375.592291543784,2353.8886581956613,2947.0853612019127,-3337.3001428604475,2785.602486728734,3043.0577853080176,3193.2246868530638
2164.0369287737267,1850.3162953029678,1818.7799357818003,2016.4919751316775,-1166.1519743442332,1904.8670683997043,2002.2077508376533,2211.2461800049496
1345.0125582336186,1243.5961719506158,1233.1915619748615,1154.5295072005683,1458.9282350253052,1258.92733672318,1284.880660125069,1300.2141867683094
856.0977432959917,862.9783107364055,834.6952578512428,614.9706903071201,3997.7853646366275,900.144604119414,872.1045022181352,757.749126626848
1529.6024942249496,1508.5276998552436,1509.3309636103513,1425.5597774580965,5257.708147999365,1644.1510876995744,1451.8033463230386,1427.8823685500975
1759.2703690039489,1666.5530229107972,1668.348139947193,1728.650757582829,4549.896444657206,1853.1641302897624,1616.165247652636,1664.1686248473707
1300.6569585837424,1219.4859467898495,1178.404472469585,1287.1758390405303,2256.5133086952846,1208.545102154938,1024.8678101212718,1242.0380969432736
1300.4854015401506,1169.9793575141957,1135.136423677919,1384.7818525790208,-393.34003798909544,1131.1947820194036,1071.2827704819792,1390.7671081388253
1054.08795552855,825.7094332885172,871.8310515794292,1170.753008574844,-2924.915339932966,930.7167481640208,1133.3563261565723,1260.4377122822625
568.9891066224227,386.90007314087416,391.86122691202036,573.2742269371083,-3933.369209767683,375.6130124564661,634.8017230725964,789.9963124549686
518.5721189645992,331.6424481062568,344.54745588633523,474.9806679209578,-3377.4015484433185,336.37590698493295,560.0476372664853,678.382892498892
777.5005949189654,610.6822205642384,569.6755330084998,616.5517803212424,-1055.4751282568322,555.5739989154681,770.8666893631889,873.5077266694134
730.7619336691569,635.7661257893487,576.0757711138576,430.2627553390048,2119.1831254844583,547.109487582653,614.5140368659777,659.6906807380146
457.0305832422746,458.32909194062813,407.98444535423187,138.4762817749579,4813.403609266461,362.2528751917416,279.705015926942,246.84297706092184
624.6321250872716,653.8348580471938,581.8744295293,377.8538263772498,5976.505857820972,630.1348607107939,441.4391306655598,432.70775390337803
893.8618418667029,858.0851833530032,853.3656721015577,825.074975141295,5354.90690766777,926.2455705707689,744.7129727895372,764.9454705197422
1348.815914882507,1214.5734383401577,1328.5107889390492,1556.592339091294,3136.2310159716726,1413.8934318945248,1312.2504498169583,1379.209017638772
1218.749859616757,1011.5799256840255,1132.7785891902313,1445.1622799990291,393.1430811920145,1141.864493235029,1169.4541747029143,1336.677039677772
207.2695665206702,94.10604268137831,126.8211501610349,158.12502249144018,-2123.421027304794,-201.09136608049448,-71.99394867374212,248.69607099457062
-257.5721666396712,-335.1365375323512,-292.6576434226881,-511.7636979851086,-3743.9878591261368,-916.5798170618509,-1030.5299651974346,-628.1116685255256
-968.7198943141702,-1025.8610281031579,-944.7703589817975,-1403.7462210789236,-3210.1406380760163,-1616.62176078427,-1303.1986064687371,-1101.6776624237536
-1631.550603941403,-1679.3620581687428,-1588.8106047670735,-2236.3102724849014,-766.6470766503917,-2136.8295964101562,-1546.2464510206628,-1419.7559926475515
-1734.974542131633,-1641.9280661593803,-1618.7339736790163,-2418.6863804318273,2389.255323751073,-2210.1732708550117,-1963.2213634600485,-1865.4355002103111
-2144.7855679998465,-1815.0672988105944,-1817.937041165802,-2714.5593865450064,5006.022206906971,-2449.533984804584,-2367.615242213491,-2396.047258812483
-1920.0158026871504,-1451.8042805635923,-1505.4963419409178,-2272.891064059295,6060.256207348764,-1997.5632139565278,-2090.6095316130813,-2244.4688641438115
-2137.269095051117,-1691.9276485148002,-1761.23328240517,-2467.996686397455,5139.072216085668,-2288.0990108379483,-2349.6595944746077,-2518.5051094907103
-2540.5733912722644,-2191.726937784668,-2191.814579886457,-2795.461260588767,2531.9727404572186,-2798.120368984688,-2687.834048120567,-2790.8255601230194
-1646.4192145785782,-1478.1972332452424,-1345.7008373083663,-1522.8943451256346,-148.51516941032605,-1758.8039912635722,-1663.1645873037196,-1690.7458862833446
-757.8661396661628,-733.2499416265491,-619.5270848204382,-442.71945995233546,-2746.420361209355,-794.7818922875158,-610.0234142060799,-628.4601462030259
-871.7462609279755,-886.1621495699219,-813.0263178125606,-794.8312396083638,-4504.64029568035,-1123.7543050353706,-873.3628769454808,-769.0693382596073
-1282.9772253085393,-1326.211955325838,-1340.261760992842,-1521.5543796595884,-3858.366912851372,-1724.8055262198177,-1455.048229566135,-1202.874577782728
-1107.467116257365,-1228.1868041529524,-1309.9356342811516,-1575.8233077035984,-2079.711714904508,-1605.3432054955774,-1310.3600838162238,-1047.8035157160484
-643.9650631043623,-700.1290107095847,-831.2092246339889,-1167.2060915708862,443.4288690084504,-1113.8009951062413,-1189.5067751287716,-746.1678696133604
-786.4709198627097,-742.5962975715083,-834.9744786991068,-1279.5191054662137,2990.64035949987,-1030.0655081909063,-1079.378515327946,-903.9834238545009
-954.0033014885121,-912.3971856065182,-1009.1811009051307,-1445.9570419648517,4185.096953678498,-1124.297628044238,-1065.6400031327503,-1079.7516193664633
-1357.7404211594258,-1124.996252686149,-1137.4370161204715,-1518.643091875696,3804.99515777122,-1370.4597755026334,-1467.6809814257867,-1718.9588304809877
-511.8671386863134,-309.4899077693117,-196.2473606847925,-188.2809519203729,1742.5668591206922,-257.34616161268787,-457.6327272345079,-770.1394000554137
-209.60027158414596,-218.82988092579762,-95.33107298066898,97.00614416807366,-1130.3564571617462,-108.19745005523146,-130.78382037111442,-244.9500362023973
60.86667219467927,-88.86350198958826,1.9619708240788896,289.7905954955495,-3278.505488387076,-6.836404582572868,172.0860649691749,206.17141776150675
561.9104307281086,297.48134398812545,318.9540306511044,722.6103571823769,-3775.3449752335873,459.74104755833105,664.4582838826173,726.2424655483774
813.5888229948469,540.8473643633624,539.2575753035053,911.4763062010898,-2187.611638813556,730.9998549802986,946.3972368661489,958.9478711908305
817.464959933146,586.3065206497558,515.9427955189894,710.3813889994781,688.099273051921,628.7284153297514,664.3372506728629,746.5900599338056
1439.374502526116,1226.610741846831,1146.719049098101,1311.0304900422489,3789.0338408002863,1375.4317491017136,1255.3060863231367,1153.6199380981998
1077.4678545937059,892.9521520219132,804.5890660636069,768.4977772877464,6255.477838479797,1072.7408621756913,1131.8070394008828,1074.6200136374682
1330.9013221824134,1192.400458704884,1130.50940061429,1150.4686889477161,7279.954690375904,1469.7529279468727,1430.7560471889738,1309.1307774107263
1274.7157922178449,1186.9258060143766,1267.9745747415,1327.6836689158808,6618.291722655282,1448.584978256651,1327.0923041956412,1171.3384552215139
1821.9867631369416,1586.2133373669494,1767.4381315714272,2114.8680422373,4360.799621071186,1969.845169425491,1813.2262078276399,1814.956236310085
2917.0986882979487,2430.594340378535,2626.6339272699115,3285.9012756013835,1277.0875418812357,2867.647966771983,2544.536149179141,2857.2782279226085
3407.229705707432,2831.063905979041,2985.003978672452,3653.101150494258,-2758.2591576735795,3170.6774594669987,2724.9809337933257,3074.641994268939
2201.609213301592,1735.7171183287865,1874.736835201009,2370.1787053472362,-4617.088658838198,2168.9029004241893,2693.957058941276,2587.8529615334264
2183.831429885162,1726.8387358249893,1831.0941641425015,2251.658185191074,-3797.652729793983,2041.674445219076,2402.944136661914,2481.925231134839
2745.3461832415196,2319.1281548162806,2338.9936551581777,2517.6751739185856,-3094.0017645022017,2364.8312572727446,1849.5846743112343,2229.125281980203
2181.866385389265,1850.0299233469996,1864.7866410567804,1883.8468191232532,-810.7345799447794,2077.8735622320673,2164.97204695642,2088.5603348868026
1272.0159412498178,1091.7881442403304,1127.386678478797,934.9915101952647,1813.1163503350836,1319.20161753711,1779.58015438226,1566.0792337488238
390.7916539008729,429.01004416597425,425.5077328723273,-81.68969260645099,2773.70632266569,235.31749907834455,370.8239890922996,216.47869897508644
-53.26838388573378,-1.333263036896824,59.98280774489103,-418.1190884998068,1949.8666885847124,-226.7091888134164,-214.66624114233127,-357.0792294092389
290.9844178601925,174.12355810930603,316.79875597955834,114.83326349276467,-312.2779753725845,113.64559945903602,126.60998179399758,112.68813325346855
442.679871614484,202.93927275821625,385.5924246376235,351.36904750087706,-2997.8787068085803,81.03436428726127,257.4039326166385,369.1746823888243
323.27315506277955,28.212744478834793,220.6873774486885,310.28991012406186,-5104.424355623094,14.733079496130813,377.4091720125725,399.7585660142213
182.68397383086267,-61.681810694761225,136.5653345372557,146.85414910520194,-5261.857449885443,-158.81389712107193,231.49660227906134,306.54002165517886
719.8481662420672,390.28549754072446,591.278372308705,604.4932326831622,-4069.5417352871154,397.4360095392767,735.4583634601586,832.9597142802668
491.04436960513704,212.3924296762416,399.16709793757764,151.11982041528972,-1710.3834109533927,164.67048585109296,439.76665759441676,451.9235018646432
54.33060463919537,-79.02690652931051,26.828420096600894,-470.8761082383571,1177.2913845511503,-283.9552097917767,-97.30965561214543,-156.00660066635464
-351.73470233374974,-367.6233866424154,-302.30581043566053,-999.2570776241773,3671.059727476313,-722.7919962235464,-649.9616139809077,-717.2627241541777
-937.6842400791211,-828.8648259089969,-787.8812168313598,-1701.7719495582423,4551.22847157724,-1454.950795402925,-1497.2164372828847,-1434.5031361361762
-785.271022840272,-801.7417766665894,-666.3123821060581,-1338.2210369091772,3907.653897493321,-1113.8801314242446,-1043.2349321542715,-1089.5730724375899
-547.085655739138,-638.2183140569105,-399.96290239047084,-788.5400253607222,1526.5816433414147,-761.987290447636,-604.0601756218675,-685.9953369024006
-395.125236920474,-503.630751906574,-274.8426033959986,-491.5181501143379,-1197.452366050973,-700.3926687528583,-514.5455621920555,-422.5124465216504
-327.85430055038887,-461.59871085906343,-242.2185459623288,-344.8909344237618,-3874.518128274154,-661.1157518848195,-368.77094179608684,-290.2735684222571
-1177.1258613014215,-1259.192321141294,-1080.0641075564927,-1455.2351855346787,-4275.912624591088,-1775.4605575615715,-1368.313284759177,-1260.4015407073894
-1795.7865109898994,-1805.5643823174032,-1736.216793965199,-2335.327168900243,-3299.1147196198,-2498.0353095476894,-2014.6856379685196,-1953.305742330107
-2091.573542348313,-1950.7631140988087,-1926.708950441447,-2738.3870561622607,-803.2267717962677,-2719.6429529988527,-2370.907373325579,-2374.708372466135
-2375.539975287742,-2147.8870676357765,-2139.9334685295034,-3164.8418367450067,2077.7691742045863,-3001.6692074611638,-2846.5166539583297,-2863.2531318844703
-2530.1278723662545,-2240.1013630299567,-2300.9814796013234,-3324.454507599774,4514.060123252668,-2916.0775082362234,-2762.8936314707244,-3017.7767832690442
-2246.1231171616528,-1888.13238093385,-1917.7282671843568,-2833.1102666980296,5541.469565717896,-2491.0906818269577,-2532.258711601782,-2761.620557609014
-1953.9277860709262,-1675.9351118840277,-1630.5804957806977,-2339.8583263699984,4845.836575310983,-2172.4392458233924,-2225.3118429439783,-2411.3685971715313
-1535.9642817771237,-1419.2116977523256,-1297.3823202371277,-1683.2198311112297,2669.2271885217997,-1711.2386488145567,-1700.9773710567679,-1861.9439171467093
-1271.1450374431297,-1312.628964677293,-1161.65661525428,-1319.785082052913,-31.060972161765676,-1504.1367556044424,-1387.27485713661,-1445.5526178463333
-1322.995639618748,-1412.0693571263982,-1303.9111071439838,-1397.249674707593,-2368.5223285399115,-1646.2399095359142,-1416.466998732445,-1386.6553351847251
-1758.314957616516,-1772.0656858654838,-1701.469006054831,-2008.5494973255409,-3184.078237745962,-2188.193171321909,-1884.0974783748534,-1822.5727550248266
-1938.7007561270584,-1944.3903598325269,-1930.060496322054,-2366.8042951227544,-1796.4313170032547,-2486.5074893897254,-2186.3102472663013,-2100.2491884291085
-1860.7639068938006,-1787.665332142249,-1830.2467037154565,-2449.672306013643,1623.1131205361453,-2461.96087695827,-2524.5102355358395,-2411.0759114635002
-2899.8083925432584,-2514.1510065626135,-2579.39364614879,-3618.6085486063384,4754.078506926111,-3413.5028327261243,-3394.914089386948,-3584.2413394522155
-3310.2982514825126,-2855.281982567598,-2937.0627207922225,-3956.809047334551,7081.894332676224,-3553.6144219579146,-3258.0127428804844,-3561.7908483100764
-2101.29748441861,-1743.8336721246524,-1839.0583366960127,-2547.3758589616773,8105.1824209924525,-2202.5312394119974,-2262.669289591722,-2429.96745453951
-2230.6876370024474,-1921.3188031871905,-1933.2069516763731,-2609.1754609803465,7306.763905485335,-2338.265354784955,-2353.1676710604734,-2618.107904241013
-2343.3182790827486,-2125.60528787777,-2103.525462272657,-2603.7987884569447,4897.423091255521,-2501.0624872147164,-2410.203417415418,-2602.7065459718433
-2412.3772943008225,-2279.7649370982035,-2223.9298827514867,-2630.354591693198,2234.018743143879,-2669.8171210711007,-2469.8716618050967,-2544.5354482309485
-2559.7571651720937,-2480.8094020291974,-2442.270840364923,-2855.1218173821253,785.5325312402274,-3018.94564855349,-2745.4874295197296,-2677.13140719317
-2799.9187030507965,-2711.496797408734,-2709.0868731980954,-3245.954079589799,876.3115700773342,-3459.592118723689,-3271.5836637643806,-3103.9689650293585
-2531.1708823142035,-2507.1023293900726,-2492.745089048294,-3073.1025243719414,1467.9468872879552,-3190.699899199877,-3119.5057484080753,-2958.922130659077
-2636.934247137564,-2484.4204986400364,-2454.203286452197,-3116.6561651456286,3547.1911370103808,-2944.4252279732827,-2643.4004649885683,-2901.5104450775325
-2732.0673265093064,-2483.8125869233118,-2426.8692080641267,-3174.891035967368,5930.41620657199,-2768.477925242034,-2358.6862576113126,-2804.5845290924917
-2397.95035332063,-2179.1629309981727,-2135.5354987244355,-2929.7122066274096,8353.541357460512,-2572.6975417752037,-2527.335804928771,-2575.68134478118
-1783.8132787858776,-1646.1456506934774,-1649.6442958368134,-2343.147405350588,9176.468867555808,-1945.5035435880054,-2157.6179236994503,-1965.4154125239147
-1819.4926366100408,-1649.7906980302432,-1607.4114845851436,-2281.6176489110003,7773.2193149852865,-2044.9665423518381,-2347.464220449554,-2223.255743830341
-2046.3480781637772,-1771.0441262844106,-1616.2842564111634,-2035.0568276980484,5199.46418989178,-1957.3931353352673,-1867.2237541281575,-2193.3808358455644
-1774.3445002936496,-1594.4705909387048,-1427.7207728545363,-1574.7157905901477,2478.3433362672167,-1659.0312428794714,-1454.7867985293342,-1854.6629642519983
-1294.7031567790327,-1366.1697703055543,-1315.1042523080032,-1353.5169165899351,-72.21570106309628,-1506.0881195904294,-1130.6647715027211,-1244.9257178090338
-1235.7529995651203,-1233.0037840678633,-1195.217399466579,-1305.163848314849,-2097.3997083205504,-1416.9047255870755,-1055.7952799638515,-1261.052414103884
-1845.074643190972,-1747.6401104019678,-1700.1217268993605,-2083.5184059724597,-1779.2207729963375,-2073.938290910177,-1748.9841992295187,-2051.645656064844
-2168.465216562461,-1957.9980485134147,-1967.5987809478793,-2570.895521470622,-492.0852842853001,-2398.8859336291243,-2128.801224355975,-2475.4228737753947
-1754.1423149561997,-1515.087316271456,-1579.4556731259509,-2210.8735390818038,2055.004683801206,-1901.376618159171,-1765.567076765903,-2108.0239132727147
-1810.9417453324058,-1513.57204555094,-1587.505903311976,-2332.599167215347,4577.168850708149,-1945.2913823690978,-1911.0161814541752,-2140.6756401305975
-2849.3014642039598,-2373.3611534844567,-2421.9102234685597,-3477.347033980772,5497.518110990826,-3092.465131690922,-3099.276215783466,-3347.4345581660746
-2852.3885241321295,-2458.181934363485,-2438.63986929776,-3327.966854820257,4506.090516104701,-3084.06040632278,-3184.5344386143006,-3384.2856166429046
-2058.9593628976436,-1858.6205543940941,-1830.2290835229087,-2325.207231578981,1986.692745828659,-2385.8764011440726,-2847.584271674641,-2758.9862568047974
-2245.436160146708,-2096.1956517464787,-1981.2544736044474,-2329.583147038409,-383.34445847532334,-2486.5685750576886,-2614.42427405502,-2628.0617432198924
-2379.905537167162,-2291.4118427636604,-2147.284562179162,-2391.7510242343797,-2495.3007714957894,-2522.8314140811963,-2118.555511696446,-2297.5876994556274
-1530.6197389686258,-1544.36094296983,-1455.964160171845,-1604.1967859401193,-3311.059509683302,-1736.4499259735949,-1425.4212375613843,-1528.566921360265
-1164.154200195875,-1232.6370327089098,-1196.6310805132216,-1377.828884457278,-2294.4490643533354,-1360.720242075151,-1137.370369504708,-1212.9545606558331
-1595.4840449809471,-1537.9325919769053,-1488.1960069554225,-1945.3881056985183,266.92055256744425,-1774.868959827786,-1616.7176185398694,-1820.424373561238
-2011.1537896408754,-1796.4575778233057,-1763.9792836854913,-2466.5280456986884,3184.0789180717584,-2170.4746503595215,-2139.9161640816355,-2428.0776680625486
-2212.8830542152764,-1904.8291793169333,-1921.4008544974736,-2712.2577791660087,5537.678386829779,-2295.44398298718,-2366.7574612499893,-2726.8822855323224
-1777.347702068313,-1456.27026071563,-1450.80704206681,-2188.8608383710575,6424.099141897223,-1814.532464440871,-2074.804226922437,-2305.074270030258
-1482.1073021011584,-1248.7716704943236,-1221.4115658570547,-1885.0616148457843,5402.9429933332285,-1717.435896321952,-2553.2641262895954,-2493.000063662205
-1497.746167143007,-1387.4899140782345,-1278.5579927759957,-1695.8123807016855,2968.6427536499177,-1629.9202456332469,-1964.0728636519057,-2080.631947946706
-2069.538678379813,-1983.897916385197,-1813.8424615330907,-2077.9561184065187,195.70148395190336,-2037.3984497239826,-1534.082498661588,-1695.7674441467648
-2084.4887532679368,-1977.4532496276279,-1865.2844400800843,-2103.8190956931358,-2013.5873317202204,-2253.9172479352383,-1980.0429322729087,-2116.7903204049176
-2172.115673920374,-2088.6786183311715,-2037.0244744094803,-2300.9803650541126,-1901.2884165667565,-2382.351377824796,-2099.226945472903,-2317.857865332947
-2313.025514918494,-2208.179916132255,-2142.89316139478,-2588.6196268486983,-704.1031686392598,-2532.909973686903,-2316.3553372761253,-2497.729600179191
-1948.6365545535346,-1900.2723365199963,-1411.725517750483,-2279.325877896459,924.2052319009381,-2211.0059239099664,-2243.031012769199,-2129.193099422613
-1479.865944625566,-1374.9831179711127,-1240.3939414793622,-1917.1426849403797,3194.266657873748,-1628.9427384130504,-1777.4008176020452,-1892.5587515437546
-1666.9793011085858,-1431.166862512031,-1503.7724317187858,-2317.8374579805713,5595.651965784498,-2008.5147389900776,-2641.5177605607787,-2721.0640180564988
-2339.3932455690665,-1957.521282770742,-1980.825527986115,-2929.3533039917165,6283.33284383078,-2549.1966284957234,-2881.1680860320594,-3126.693080166191
-3052.4536680958336,-2663.0049520451576,-2623.3605447137197,-3488.191293890821,5229.164843542763,-3133.343758364026,-2966.795505125192,-3280.5634286428503
-2749.2274528275484,-2481.8422058659853,-2392.6026904182945,-2999.809003771861,2904.6117299093967,-2882.4449373438765,-2771.767627276331,-3040.7048998536993
-2427.9622294128712,-2309.7883151793467,-2202.1672732644365,-2545.3875602702246,201.85227028006193,-2599.2231174533117,-2388.555348709262,-2571.074331123851
-2397.8019673752024,-2310.2742387341386,-2241.2082674220037,-2501.5325879181146,-2311.51985263206,-2633.7834928269476,-2438.3914111918857,-2503.1335798731416
-2685.8306631054948,-2492.186323066009,-2503.302421084525,-2937.4448422216446,-3094.536240662528,-3059.8956126269404,-2812.893365977212,-2849.317719430699
-3112.6146093791613,-2898.2520175698264,-2935.217051845735,-3609.8761844724722,-1930.7486072522079,-3655.797952610177,-3437.258260851908,-3423.611045623802
-3623.4519865672337,-3363.579316253057,-3402.3065666025723,-4308.0006828518235,492.7688319220324,-4010.712193880019,-3728.7449078010686,-3962.4064974556313
-3173.100276419893,-2923.8270931018124,-2932.405715389392,-3816.477217003783,3447.3904660290355,-3401.42657851852,-3264.7744299397164,-3484.0131766048944
-2883.0735981696926,-2601.468289507102,-2647.874182165855,-3539.3673824568396,5903.014923410636,-3066.107524432802,-3082.832149136935,-3226.9294353112273
-3137.1607756643425,-2712.773373068805,-2775.8353497850767,-3748.472309265897,6567.836391198653,-3355.9324154564456,-3532.05119432669,-3684.2177273988927
-2304.066052068556,-1990.9955123296459,-1978.8973919204946,-2575.603926829972,4978.5618806050625,-2263.2785010199295,-2548.9465291376982,-2837.7277743572995
-1286.7854099083124,-1129.1934618124214,-1096.2368741701139,-1305.4117752806487,1964.7487607434887,-1172.4851115968195,-1650.7531360300563,-1922.7725585823428
-1262.7751805365842,-1168.9730699663123,-1111.3012152326482,-1247.3912748805087,-1123.8930352556636,-1319.655241160428,-1599.5414487873568,-1875.838269758191
-1548.9422910527646,-1584.3236630578613,-1537.9785773508702,-1635.3353790571346,-4390.568577485668,-1664.2813363899331,-1329.3404975102676,-1464.3451678746424
-1185.351714632212,-1328.17329538599,-1336.9462597158054,-1524.4081176215332,-6039.800505631123,-1644.8846909242784,-1664.933116698383,-1356.482689302422
-1529.8221060019932,-1433.4975628892353,-1385.3940786778548,-1701.274770567703,-5315.127537096021,-1627.6042579353089,-1570.7682716955678,-1625.1161219422065
-1614.9420038883181,-1472.3680347615664,-1451.4813011118968,-1812.2361117861728,-3415.698760095096,-1464.8883196770403,-1009.6610321444532,-1536.1840203675965
-694.6864758418451,-610.8238378518727,-670.814245791109,-898.7198555926734,-532.2955519091847,-574.4818850489464,-448.08184764524776,-882.5856506245982
-1663.5836266821016,-1036.3441843505682,-1176.9973035251078,-1444.0134361766552,4195.499270774311,-1250.192351367868,-1266.3665379698186,-1439.617247399137
-1075.9770335002063,-591.2310035540327,-744.9592927630226,-934.5409788019872,4665.66100700352,-773.8336803861021,-865.6685429768522,-717.8393983300418
-940.6415147680582,-579.5527985962224,-692.4434690471701,-760.2166348939058,2960.701784907651,-718.1463917738383,-808.409174838951,-480.07593799450524
-507.09335796092864,-219.04396472005965,-242.5062702281698,-61.634759150968875,369.24047958780284,-238.14215870035014,-357.7456194569304,-140.127562078535
-285.6029283269145,82.3854192408844,80.00430934727547,440.1760808780018,-2628.661383258719,120.22834600848637,-72.39422114547324,-181.11825553664403
-800.1918407511766,-380.67750213217596,-367.093811458918,-53.04020799215823,-5259.878502051192,-411.8555212689075,-176.6119935498782,-411.2573073814465
-737.3613753240343,-397.2335664536163,-388.71929346339766,-187.2851464721707,-6991.389792745304,-552.8248192304686,-215.38044712007922,-206.31705939384437
-1234.1676293858636,-857.2923507239389,-885.7155365260114,-894.8854189141184,-6222.875534147868,-1024.8683450682875,-624.7411529325018,-808.1301027550189
-1875.3985042880795,-1405.184480233826,-1514.1759555969693,-1845.2768269414046,-3296.967913743554,-1793.0155832946957,-1518.0093891990118,-1641.4344482825081
-2311.245714963414,-1727.3433024708538,-1858.5800787911248,-2374.021449042747,-263.78129156876093,-2161.591760675464,-2041.8258040122091,-2214.321189933232
-2556.951639253619,-1832.16066593484,-1988.4939995468967,-2600.3936826603685,2163.2512073891066,-2318.516917979945,-2328.0971100650668,-2536.3961887382557
-2201.004012729274,-1484.7402611123143,-1619.1601661666282,-2107.603006295709,2784.706731359379,-1896.2756974403455,-1923.7395264157494,-2100.8278615825257
-1434.582327451646,-937.1316266422382,-1048.7784759249116,-1226.12963328954,1720.5528290262137,-1116.8096789203591,-1265.7193929443783,-1264.2559866528827
-1116.5676293623,-713.9445996390514,-781.0299481044094,-702.0720016068735,-679.7169636643594,-878.5410842809506,-997.6089340430863,-940.3300661835365
-578.2431321244039,-212.0354969143009,-258.76327934587425,141.68855385466486,-3594.289768041791,-192.17725885842992,-145.0191787955373,-159.87359748572817
365.42541386699304,553.8904995080156,524.4021511373958,1153.6191493242732,-6177.590138384545,761.0355704748617,862.7260100118874,918.7422794905087
638.2722428125926,741.8199103359075,740.4285824567414,1285.9549972622208,-6814.773210860054,954.6456062948328,1141.4297828384078,1207.0638714214365
339.2013451411294,463.0346887249452,458.6614635664355,717.6603566075046,-5790.17315841938,522.0064909038065,732.5424252387402,790.787335480054
-456.4303026838643,-180.85178481038201,-250.990911703042,-371.42731809431825,-3605.6551638824676,-376.45073992527614,-170.22410109911834,-212.0308339396979
-1117.4857160099054,-677.1562858449724,-801.6838526104566,-1232.3887950583903,-844.6738026189814,-1062.928805380483,-966.6525280621845,-1088.9437272101804
-1552.098835776058,-965.9940962521232,-1066.8137002429758,-1660.3010107212667,1520.2038360686056,-1439.0684343339162,-1540.7750834022445,-1616.444368408649
-1538.3897587419415,-951.9686246999936,-1048.1692729665247,-1587.0989736969714,2201.5117663667843,-1416.0986355617006,-1634.7987040250064,-1612.300942625181
-882.7832954454461,-452.55610866297866,-486.3483621618816,-639.1050394280264,1108.1140802232912,-567.8657329530288,-711.4277003675888,-761.8422337866323
-528.3500971889807,-230.41051192937266,-208.16649109691753,-147.6334418002989,-1293.303988144773,-236.33925389109208,-296.2619622039783,-244.68016658084161
-182.11802173210162,-1.681337940337471,37.370122945943876,303.8757469156408,-3996.684975627544,28.314316302090447,38.54772493570272,169.55589691094792
98.14574281530804,201.69028638529562,248.4720855433552,657.8543231392468,-6187.689426432742,284.3320727796381,459.9814943367055,603.1283723825181
625.8712074076684,602.1649056314254,602.7977538524337,1088.3683958978472,-7025.179753281278,776.9978094826911,994.4123892355146,1206.4434359373536
564.1326375723766,404.0038954630254,363.7611755414091,669.8447403522441,-5850.7284382472135,451.13945917980163,636.2893198931561,1049.3565414122204
362.2224254335197,207.08410596043177,49.463007968417514,23.666022868987056,-3211.2592428675853,-177.7194996770013,-460.2636418077782,263.2329317550775
-274.054590640415,-222.86631961981766,-475.19950620664895,-808.8671942991386,-355.055104444873,-886.3765295385601,-1396.430655525326,-800.0805334700235
-1153.5694997880746,-721.8982155875965,-961.6853397046707,-1409.8966606215472,1982.8309376112084,-1270.6001141866655,-1330.8625084509695,-1071.2016481499486
-1013.7606204674339,-326.60424293019605,-507.0710968643143,-1062.1305241257141,2807.7808127766984,-1075.2304261202225,-1748.1893158064595,-1884.9146704457198
-1834.8114198221374,-1178.8745533210913,-1185.7528333464325,-1533.9744990975232,1622.8613237496465,-1333.6625683468774,-978.6227067584987,-1645.822434990947
-1798.397336908376,-1317.0334151478582,-1252.0941050565052,-1396.7672786100884,-949.2547493335951,-1423.0022051376218,-1080.154793666461,-1368.353040505841
-1386.3918615835755,-1071.5294060951328,-1022.9467322124619,-963.3526233965895,-3591.988014065042,-1208.734259710076,-954.7618736119257,-1049.7562573396244
-1000.8919931078417,-825.5694913312873,-752.3694188054105,-550.5964205416494,-5535.313378401959,-886.1529459408121,-539.0688089367541,-538.765725176545
-912.879566259784,-742.6427084690149,-708.778981320811,-521.2290894679827,-5784.7501842429265,-828.7652877576838,-403.10884917487056,-424.7387465360807
-124.62022107983285,-46.16463598565315,-24.475442795250274,263.58027824673627,-4363.866961091495,68.62274898782925,390.9294165101346,288.6886561414867
-47.08069372127284,71.75504549279503,26.51822598191211,99.43989825652534,-1724.7390053166164,60.218046868845704,171.16355790732268,167.25628854394745
-514.3170822692991,-244.7016840582546,-364.4202850489746,-582.0440170309848,1114.1792913423124,-498.40538265482246,-488.83843530900776,-504.6836625966316
-1225.8500360867401,-816.3681327759732,-979.1990617214578,-1407.792622815501,3235.5141007767525,-1097.3919367111957,-1048.0102272853874,-1270.1079128416059
-970.9486371358871,-566.0252584959126,-707.8989306976109,-1043.0929685952542,3864.2096350290376,-805.4141068576355,-826.1224336762098,-964.0889551677028
-958.885708815913,-663.1635222982441,-750.3176667524676,-954.816189461515,2848.1219364068747,-875.1343844064177,-913.6566774874664,-933.1285675492873
-732.5719060215415,-584.2447281277018,-619.0158383101625,-558.0634019331737,342.09963405359304,-666.291882196987,-702.5791071324929,-592.3361853556635
-613.3434233451553,-510.80440444660417,-515.4516671949459,-339.2442853139182,-2252.8974989879935,-636.19986236568,-670.2661094601826,-424.1427349122205
2.5752552319318056,42.666212289052055,65.96035937236229,316.8260305107833,-4551.520456084232,-190.60244585711553,-548.4374380539739,-131.39749080244655
-102.11188944924652,-3.4568546696027624,-54.07684864436669,-3.1592505422340764,-5117.145344573073,-453.5785692471254,-910.8528533062636,-573.1838895738692
-2065.3028016217722,-1758.9202140863636,-1820.1887084631635,-2139.428156850521,-3917.760955634949,-2173.3259048101936,-1674.7299687216328,-1971.19048208393
-2689.36534714562,-2236.3684725845887,-2267.3471495684425,-2733.1203783369638,-1404.0420228764415,-2610.2975203487076,-1973.2693073771952,-2332.669350408334
-2557.8805922338797,-2047.9089709220862,-2166.418023216338,-2800.7351943406866,1073.9950359713112,-2603.916500264575,-2330.7477476815693,-2554.316335044612
-2451.1440329585675,-1898.5107449016687,-2023.255577405147,-2659.580867912795,3454.7672451582475,-2425.1171250325788,-2329.1082238655727,-2502.4299221565234
-1644.2778812616598,-1190.8053655853873,-1274.8941306884444,-1640.0730852174238,4130.936056429258,-1386.1436599374283,-1414.3477417797985,-1613.4992808209936
-575.3046788276552,-306.1025660188934,-282.9997281274773,-273.0626391969272,2975.609852028021,-196.17254607521318,-336.8461138312123,-446.02897569882043
-127.09808635964873,3.846943151420419,68.67353417840059,326.7685631243148,431.9049321520579,213.77211339048517,121.8293690092105,117.00466736563976
-100.38331010354159,-12.12696313838751,81.20276853458199,429.3930890870761,-2252.376005302067,178.53969274162228,173.90033936432883,225.92735496500973
-213.39762388579402,-97.78173884609714,-41.92071297244547,324.0260541841344,-4419.415593343729,25.897374609739927,116.9864611056546,155.72830775425973
84.00897345362318,83.26394613001685,121.82832948916621,473.52055672074493,-5150.351208496955,235.07755658322276,394.37997572620225,444.8415864677154
311.76551451539854,269.1567118548228,280.5640981546603,567.2507755155384,-3924.8402363284113,391.11026482703164,586.2990396845853,632.4571011026783
991.670713188847,924.4070570030162,896.8651380444498,1145.8688871980921,-1251.5780696030706,1074.5059131986927,1081.060856590244,1194.7168490502736
854.8695210738078,888.7108866880735,844.3947131528912,917.3868699132872,1651.166772222583,1050.8288922343636,949.6810376041612,944.9946859907286
356.0653162763483,519.2875537169857,485.2176455154404,375.32573218461766,3771.1318231118494,701.3243437960773,613.7692916465821,391.79502591260825
207.29537384897412,414.3543522232467,364.5479469919446,227.4320316699086,4263.889057646942,471.6393027748127,247.06487410224508,129.15837455709698
849.9739202947603,847.3904876708075,850.7300681012603,1054.4050510241432,3238.3198194492434,1093.7215726174181,843.6383033045931,987.6497990077478
1548.4389543501675,1286.6859862176098,1334.8637156679324,1810.404860689032,736.8316157508962,1674.0263408288156,1501.2714995620772,1974.3443429776635
1749.0794996054028,1397.2541307390384,1492.9797749978097,2142.9848841591047,-1925.4344237784244,1903.7862582321177,1973.3555513516985,2274.9945614649005
2221.605041750743,1830.1149093239255,2006.9841604898975,2745.626667785924,-3901.1293844970933,2404.2520099669564,2570.0818055812742,2737.247991199314
2730.048926148418,2254.2833523591435,3218.5675274370333,3282.6880715338484,-4454.87817878346,2897.595669306007,2789.2448561719866,3080.9693944844876
2092.8970057958577,1771.6354056365162,2055.9968429927467,2388.8701558940593,-3109.1148050646443,2206.5603403750174,2234.4622910632097,2273.1487968202237
2018.9791237736645,1805.3977727364363,1879.6325990917467,2284.189218866457,-410.0590787104884,2279.4669641222536,2327.131490555068,2165.205174459741
2124.9603882978045,1934.647936286001,2002.436614312759,2297.794341698971,2458.505690225633,2438.644450258944,2386.3236291909925,2251.3301124116806
2487.4699534409883,2317.290006290381,2363.7198187016165,2652.2432400473226,4772.787554303737,2877.9417700620907,2708.318188977524,2564.201539948919
2277.500188740898,2213.0573541588383,2282.124354026875,2444.232039465076,5419.7666554559255,2647.5826862340346,2439.1468465569633,2287.957924890381
2328.031412684013,2164.3053775883436,2297.736171893057,2618.3274206210863,4062.9753287587664,2672.8678497767596,2496.640450880206,2389.2638527756408
2987.332513660869,2650.180063114115,2835.609156370907,3464.218356238599,1441.6820030513336,3323.0310215241043,3223.6694414242866,3228.6146332644976
3080.2704840078222,2625.605599769699,2818.845026588845,3544.2006099053915,-1224.0020478994993,3257.35795878112,3268.2742158107694,3346.9566922835647
2925.4028892869756,2406.795670630251,2547.98448674459,3246.8656364377393,-3346.6426213067753,2865.123448875319,2889.927511565307,3112.663035164858
2649.8875150753684,2170.415857319398,2216.0178134848748,2616.4453811627313,-3785.237172220397,2171.3009333246055,1858.0112876336086,2325.578154358516
1866.6980722788467,1483.9352431254088,1451.4958818814737,1449.6711640964086,-2760.6722114302247,1077.0957038739516,745.8310169192865,1348.0370555451498
861.1283400679804,614.3432882375487,599.0538369976887,378.9264308389893,-615.0671186235122,461.2627643676285,542.7826584870018,487.27121216097385
-442.18786158690455,-464.12866360194084,-368.6699416922236,-719.0051969584201,2162.0729928860383,-277.31512399348236,515.458090741703,41.60966575300836
-493.2490408085232,-409.38440287915864,-280.63010588583825,-837.1164476918566,4476.217833966497,-596.5697224987773,-491.6168159091642,-454.09446047510664
-548.9748002249235,-376.9141681496312,-237.00387943232045,-832.8699979503103,4916.709071274738,-573.8925693016276,-492.5250274912819,-817.1008558854023
-456.81495983191417,-289.81953053958773,-93.96412390611408,-494.69927632199415,3614.905805559203,-356.9681686814523,-340.90669496552516,-687.3743696751021
-595.5089822368045,-525.2588742671007,-303.7147433408377,-536.4597671687748,1071.1841226148972,-624.883546878815,-576.0260430426378,-763.8152798523947
-748.2872574755893,-714.3644414298815,-489.22365874029765,-620.8240228867703,-1729.7471208551215,-785.4528257580157,-667.1205507999025,-805.8838884319593
-757.5564956392645,-765.7146076308144,-618.7428253428368,-630.8916105818994,-4197.12692217539,-835.3608286679223,-585.186281442187,-696.1650197878146
-973.1193365613817,-968.2670840647107,-865.0812380775905,-995.7812174737498,-4420.05524507504,-1189.0010661410997,-910.4874354818198,-954.9777548261266
-1186.33518161959,-1167.5571507523305,-1093.926758212605,-1369.3508798957503,-2940.9296062627254,-1442.733147744112,-1150.0141336860456,-1250.050398110268
-1418.1528366463572,-1319.74298779329,-1303.3953077467465,-1754.5368073543377,27.223924396545044,-1627.0889464015127,-1433.8964593748801,-1610.065000654091
-1344.4737495172776,-1172.9120316531516,-1176.6040760291849,-1703.6724442860504,3011.6771066326037,-1427.492607207124,-1389.0279210005747,-1620.9145016602588
-1273.249817976368,-977.157314896579,-1014.7197881225957,-1621.2268625880033,5176.951344536617,-1298.9272370043582,-1406.2462160560935,-1614.7492682488546
-515.6298834098088,-336.03179748774164,-376.34956660582884,-719.8720469335976,5670.871879492108,-457.4095008065924,-631.8433431204294,-805.1468963659727
176.43578872855505,133.60418089509858,113.47627437782921,86.11899330349843,4460.044188065513,208.37288942367923,53.97214084183997,-54.4463572668883
1073.5088900476621,827.5844631771415,882.3477789304743,1224.9999245951167,1900.0634089597152,1144.1238476120398,1084.395787127748,1062.3870499024397
1460.5479134334164,1171.3047515196458,1338.3711284298397,1958.0001916042224,-756.5293722059359,1712.1505433221446,1628.871779666024,1604.0102844265575
1543.1115071421445,1205.8366484768499,1373.8503672403635,2015.5168856263542,-3087.4527943921785,1701.4263754326867,1734.3059197090706,1815.2681822086706
993.1436289965932,662.9656243957143,787.0616101558717,1102.7206162354134,-3887.540274084997,862.371923130082,1042.5820464185044,1147.958899007133
268.18096735279505,51.72031474618598,131.17685113732728,96.95165953764473,-2796.5411906359877,13.61986764037647,206.657364475529,274.4900632661611
76.09942732574382,-30.34680158932042,-27.149965711802906,-352.2462675095396,-317.75749264661863,-353.31292872767426,-648.9530619606808,-420.05259341435567
-96.83547982055461,-17.197467251944545,-57.882822639288406,-567.3572615240977,2441.5705588861747,-418.8869906366772,-1001.7671834666376,-933.7993490508961
-743.1963538274995,-594.2764069540694,-576.8886065229822,-982.4881955998219,4526.678745893674,-539.8749025914576,-251.82882283513027,-735.5548410527299
575.3309240660037,555.8442630684726,599.0417638103313,555.8520598651951,5040.622206519656,799.3100066653651,746.6167001491849,577.9402746684591
1292.4631337479932,1126.5588725933435,1217.3354407198003,1325.9402707374327,3731.0646819250833,1293.734518344124,847.608310190959,1112.6292126771646
1561.4969838218585,1264.048423144817,1349.272102960108,1585.7926375916936,1079.9505716188432,1380.3335629842604,719.6844203439764,1084.725906784337
1051.2887183765179,739.7533239549269,888.2427271453628,1301.7212543885744,-1601.411443880228,1207.204561221092,1356.1629399331473,1267.3366724948028
493.43567621033435,302.4789428791246,483.93183203359695,727.3466140464989,-3747.6066078850636,541.7100889281846,849.234398901651,818.7828397004149
-727.8278309807556,-746.1271893544031,-594.7200582715327,-876.1856927832578,-4597.390064760402,-1061.6563732487928,-855.74510481724,-813.234531676039
-1154.913105909025,-1165.1228737157962,-1083.4479590961641,-1534.61199827963,-3206.871801669833,-1653.1276357169127,-1419.5969070527522,-1339.4716255242702
-1737.8250865393093,-1599.4375729296403,-1548.1803205315744,-2181.935907161817,-475.30405004444765,-2084.385713312895,-1928.0797219508345,-2056.8017473685377
-1951.2356006483933,-1744.9309492546163,-1696.9853158212502,-2388.577215499182,2321.8949302982146,-2067.3426478206047,-1934.9436406156956,-2282.1704363529598
-1057.7822860921624,-910.5882252491338,-881.8834375497263,-1378.7416332050852,4546.317390203971,-996.7164712368904,-1085.4546445256055,-1362.719509452496
977.4698868178057,870.5374911995368,910.0280729813126,1003.4373080611808,5005.3100979790615,1307.307683023816,1064.6107652994897,860.8570619772845
2265.2825504274515,1928.7433379501958,2016.8330715194538,2568.216668094243,3724.882921621116,2681.775607114446,2428.6364016884027,2312.886472856807
2329.8462747998656,1931.6154580413904,2045.0720487374515,2683.7169804010905,1170.5037557830437,2620.1189945907363,2443.330472080346,2425.0017518967798
1782.925657838574,1364.2611814061886,1475.0133541466034,2016.9494017837926,-1226.321145894908,1853.0660426698691,1817.9432492606952,1867.516387427698
947.3480408571231,587.1305426210131,667.2830045820351,1015.4227230360352,-2658.1174574946417,810.6974257180673,965.1996017868681,1018.4496936847315
410.083643582886,80.0346680341238,183.60988681900153,291.31755720612455,-3073.112374900804,174.6020702897672,415.86090285902765,422.92153759399207
-651.159112841593,-819.6418663526268,-723.6934346772305,-1043.3200435836034,-2228.456605536543,-987.8431077525477,-779.9951833218804,-826.8096726457293
-674.9927379040982,-764.6644963907376,-721.1542314124649,-1169.3685335928499,-657.3906219725905,-968.6963530572409,-880.7776285426476,-960.1955280657457
-813.3171399890143,-772.8343424050005,-777.4462418805792,-1333.5055421307336,1986.4342824145133,-1004.4973811798968,-1007.8443366188267,-1165.5174010406342
-1068.4053732459306,-894.5958279484372,-910.1444319265911,-1564.4013362054234,4141.183416721025,-1190.6011627321868,-1332.4918493395767,-1502.1365919182374
-660.972443951363,-541.0855548607256,-526.6306834137984,-1019.2844781573131,4567.823306705512,-697.6690013962348,-894.4955571756461,-1037.1591597914698
85.83453702218503,23.540463086414547,102.70118894395819,-44.94099487198969,3174.499652099905,97.21744987806505,-82.42639157586518,-117.53149927829509
1328.3914578220902,923.5649256151698,1039.113987804397,1352.94964147999,609.6116760996374,1294.8440567733815,1160.187638072444,1501.1217152557879
2327.9048954522987,1645.4940172584875,1790.2253362004235,2438.0398998411442,-1951.173890388607,2243.727284627682,2292.341164784474,2799.6105307626844
2517.681796242786,1793.6893258705936,1923.5579971010638,2606.192752364896,-3736.305746934311,2368.238188202239,2539.1623776171787,2921.6364926553038
1719.3707212564223,1301.9640588156967,1411.0818834115307,1830.2552257308043,-4320.993032612903,1679.5217384839386,1874.29702595867,1819.7409685550433
551.2372139409736,378.68401165827845,472.16538737609517,456.072359339606,-3472.50857257031,478.74123530601855,644.3842392349598,385.8118874006095
149.0373295572581,79.24545120224184,134.26026677394657,-164.8424929620096,-781.1454668570586,14.19267448690789,83.09880109531241,-126.00427176345056
196.95025128456246,142.54857191586962,157.3441102265224,-163.81008561684484,2040.8971474906139,119.77174889291018,98.52815021652077,-138.17439040004865
807.7938375427202,724.8236954344834,714.6048136770805,579.8828512104365,4171.38029534321,882.6226556551001,682.0758263108282,501.68365681365503
2102.650211381474,1822.819882372889,1840.5773568948116,1959.9037166415637,4600.821667183111,2071.3423655566776,1592.9285843243033,1810.419840278024
2962.7368214133576,2493.260493124568,2527.853461566572,2804.9345069694664,3379.7495072905585,2664.4643286464316,1857.0899916698836,2372.2794692848793
1745.9438464138918,1326.2609463569115,1432.4117899271387,1748.6288739489428,666.0394649235532,1843.30259718677,1845.4579449682915,1679.5501035288962
1152.837063266772,786.6231203311381,939.9587166515976,1314.0072932688472,-1962.8866059496577,1182.7957864076889,1304.5618377055853,1331.0918637496761
1634.0815248020235,1234.2741592851653,1399.608654251515,1948.7568518323005,-3626.32715312628,1635.9403303489798,1676.1973523583856,1765.3639108106981
2410.3754755879872,1865.5358004291775,1988.9630764524227,2764.9482548978776,-3261.6879200051626,2582.687056888948,2905.8025091245727,2818.96175801949
2342.443843369996,1808.9917762640234,1872.8307710559493,2412.6820541979578,-1581.4722707811452,2330.252437956973,2511.7824844204406,2504.2382540047292
1420.6218179462903,966.2730157221595,951.9563906401308,995.9734236865916,1156.861412657432,1110.4431254977753,1230.027186043375,1335.1763190177626
1032.9136367997744,678.1069200675847,632.9770901053671,471.3635194154558,3921.906160086408,762.5588022518496,714.9168492253993,756.6046787908308
28.57894328684779,27.889028667770617,-12.970694114002981,-421.7921280921255,5925.967620664618,-64.63374835679133,-260.51065992908116,-412.476379152944
-888.7189430805374,-751.8366874716776,-818.3590186685396,-1348.231483778698,5753.276206564024,-1011.2537898337469,-1204.90694723876,-1349.9396135686256
-1009.7545617918349,-991.3601585689321,-1000.6443755168693,-1410.5643253013877,4031.535771160612,-1190.3371795184285,-1342.902650060012,-1438.1803500687165
-432.22452949861145,-586.4035114142807,-554.7579395441098,-703.9215099285975,1054.5575187193353,-713.3565670339558,-917.8004489066298,-806.1296545244586
602.2414467152066,233.70460642613398,211.32104082302249,317.2932093034433,-2062.276912192712,-34.00857282358993,-834.2959644458388,-265.76211289648563
164.8315100255877,-143.57859437470688,-249.55885109951487,-170.16906289570397,-4267.3912066447665,-445.5021797661975,-733.3710242405141,-417.6152632063531
-343.6067642562866,-673.0131187888128,-721.5081156196793,-464.1761389341227,-4580.59452139918,-461.65221245486464,316.93730184828746,237.94922084381687
372.3029765476567,46.95363985454969,-31.14360999625933,205.63601904834286,-3457.342078018257,248.0188896938489,606.0376214207827,557.4503350672458
381.9335656989351,165.2869461793307,88.67568714027584,50.830381180418044,-1015.2910810258545,259.42475178978566,395.8899920494732,304.7417015571773
-167.739459637236,-279.3547784986804,-374.42663137533964,-630.3490731429483,1826.1617952898741,-286.490273298743,-354.2408976958577,-489.6773449188331
-482.6959390444663,-480.96606752172556,-586.4080271834173,-963.3422341057667,3829.393899937437,-540.8909136363873,-686.9697801335606,-909.2823156887316
364.67471464668233,282.65685049542844,205.78768570107422,84.41891034318542,4084.531696700338,434.4434339899999,262.3641110712051,20.50980955516934
561.7643255732837,408.4856423677029,386.9256598759748,390.9256610497614,2645.3885549343577,550.3496659607699,362.40140043095744,279.5671455817137
997.8644274049911,700.0030858167684,724.4341268969692,1018.4976745251515,18.021462827218784,962.5964766957622,761.8692933040766,887.8993344772789
1213.9159923222924,804.2773135424759,845.5020449202311,1352.0504271540885,-2599.8676747184654,1188.837574577552,1212.666123404677,1333.9192980334483
1502.3822738716553,1005.5912836527641,1025.6236121580187,1609.7454732474216,-4627.16277838836,1422.6332356080602,1586.8709689187017,1704.374059515434
1975.4563636298444,1427.9461372990845,1445.859210600349,2074.1721139364126,-4870.325619953146,1955.022008213782,2103.277990510447,2208.082677992141
998.1144187860773,613.5325000641278,581.4900071789634,797.1514206770662,-2617.8004705814456,810.334251187287,888.877731363169,956.1418416543638
407.697995619048,129.19919571329956,38.54213227888613,7.623195594180288,1261.460315632372,223.08767551547498,225.37719362338612,213.46740522017353
27.33118425376233,-112.8522477739316,-220.88505951488332,-493.8493522079516,3904.2320329936265,-122.22923925832583,-240.5751003006735,-306.24117852373456
-340.6842725289134,-323.4813745389001,-457.753002986552,-920.4062259844213,5987.156726622088,-525.1952308614818,-713.5774860586935,-820.7007223304063
1124.8520260760088,931.6080122853054,701.4812296843374,869.752788010428,6238.7479643548395,1100.9957334296414,946.6900883100607,710.6449543738381
2073.8032143439923,1677.4115772276637,1514.5194616505214,2104.4092221115607,4840.939471008078,2207.6014692756,1939.6224687572576,1849.601707601476
1967.10807326539,1496.4404383923065,1419.3024531942647,2125.1215376114305,2197.826714007613,2041.2531081739326,1828.7835043544073,1886.8630926620208
1815.225549273946,1278.7220307309872,1270.8510632227444,1978.2304691243226,-132.66160972139915,1789.2192909609184,1683.7485237515612,1808.254497041973
2250.452589127264,1593.697866986342,1572.9169610570389,2398.480388045293,-2088.6826277987966,2168.784659324898,2230.4515173849068,2388.0711610811886
2077.854841867844,1448.1416769942261,1406.5566518171509,2020.597450456873,-2264.0085138452014,1871.0929909386177,1966.2671065853647,2166.7616902918307
1650.1427389311684,1070.2297943330632,1016.9428687365944,1427.7638798149928,-653.8413759626965,1446.6697437321054,1521.3103748810681,1633.8216173524343
1956.8111928341314,1400.46789874979,1332.5616668608418,1625.1728203910316,2095.628704105835,1749.6282667582345,1673.2742740539252,1797.0432089383175
1811.970978674588,1343.8462075583884,1240.478102767156,1325.9015561483611,4915.602467466746,1543.2831123830547,1328.8426914433876,1482.7393120045526
1370.9715118442036,1053.315331596339,946.6071566091559,917.852633196977,7027.082736712873,1244.524947912556,1025.4464697677686,1016.8864960651554
1145.0669324819828,850.3346811619595,734.3262459619655,757.588915260254,7049.858749294408,1111.1243094418169,930.3021747236271,842.0463599908326
594.6016907317025,287.759322779777,189.42422298521706,219.51932130997739,5436.630583258096,399.37896177951916,158.88044995708333,255.59804669946607
842.0879955541095,439.4745063359733,370.6645619159317,604.929078453184,2801.749121243434,564.3511792049467,347.2901503597677,616.8570258688924
1152.8208975861635,637.0924530858902,588.6508184944105,1078.6400666132831,-465.5905788108921,974.5167305583454,1007.0354549776966,1114.4180990089226
1100.740907817868,597.2146100354657,561.0388603491592,1036.9934214007008,-2526.191180586843,903.6162539453071,1045.586810603083,1070.5536612468932
240.52730680342938,-116.29613561685983,-149.25474143218162,-47.116266130062286,-2356.8509178135782,-162.71129092229967,-28.608061715698568,40.06460877360223
83.50912621531461,-261.11060786564485,-287.8815171622191,-328.93501672838465,-729.1554885325684,-307.2350277491496,-167.99054400497698,-133.64152682213899
189.6511206227442,-102.96669430081238,-186.3914596163013,-363.7586984030859,2083.5890060526426,-158.77090805269108,-143.01338808129367,-139.78243462221872
-68.7289422164904,-239.8897008359345,-356.6854019354578,-724.3404563415606,4851.801043631236,-378.0844314244023,-457.1280841388725,-519.7106682478334
-78.26698705012677,-216.45592262975697,-340.49506125151674,-668.9631004966723,6891.9064058114145,-249.1139180275204,-417.3806219072794,-502.49918826895737
-66.81137380841392,-232.04702462552814,-366.2747388731659,-646.8295247509377,7009.234723471305,-276.46286605154455,-487.5378171454213,-514.3048798501623
-408.3185405095137,-598.4378382375362,-692.9469980172216,-901.9636754149615,5420.18583026162,-673.4784136660019,-842.3596936640461,-828.0875036495927
-405.76119091784494,-661.4797947122934,-730.4752359451159,-819.5554710916404,2811.3259508130213,-822.7778661633856,-1120.1942066233241,-890.6878773699136
228.79492116779875,-114.0432821317736,-226.46881650114665,-202.3449212305568,31.39480217386881,-523.5481269792217,-1365.3853691073818,-772.4627993235699
-212.25718528746802,-487.15466005269263,-571.9605213592877,-578.8907046530585,-2449.009585325559,-805.373265020593,-1146.494116802758,-965.0044420317936
-1141.0056068555932,-1355.3660538586955,-1371.8537376548556,-1357.806221732877,-2526.379244843545,-1326.67509057407,-582.0635514768946,-873.229328852969
-1213.6084788025619,-1387.7483671057016,-1454.973008912184,-1665.308887346684,-876.6877053977041,-1637.3633204915968,-1345.009510723081,-1338.2816925232546
-1232.922255469246,-1332.2031947747892,-1477.7594098424925,-1967.894618720311,1855.2376377750516,-1836.4498298726467,-2071.276766394454,-1900.107830121684
-2009.735219591712,-1925.9673851808657,-2061.6400383386244,-2698.235548948225,4622.886255269397,-2294.472149286252,-2093.193685296301,-2363.7126216409997
-2675.0173689127187,-2399.3786864208996,-2558.126430483044,-3391.1050395203893,6547.791826250163,-2948.0021988843982,-2946.361223411386,-3215.1857629713377
-2865.610988642271,-2557.805226285407,-2726.5241475713665,-3597.150741493366,6292.453102017833,-3294.391086645981,-3675.5577891660396,-3621.706953686069
-3045.0418177626852,-2808.9448252373513,-2914.801184136013,-3578.607117151845,4448.7080398472535,-3337.555940967897,-3448.1776380470947,-3572.1066453035637
-2837.561088614406,-2783.376011670225,-2883.584942523583,-3295.012960094784,1853.9080402310137,-3203.0080864802585,-3041.7887348295626,-3069.2421591049133
-2187.7732509836023,-2429.00059296942,-2552.5067452123167,-2747.031031615761,-720.6526547220856,-2816.0982527788874,-2659.8761830860676,-2241.557559874831
-2178.057623371147,-2496.5265779496985,-2616.268488893449,-2810.571285744043,-2263.2778781895686,-2843.318615073671,-2480.726462753597,-2094.9340398612785
-2682.786552220743,-2814.8401716109247,-2999.6254215666568,-3418.003348868404,-2001.8788303973852,-3495.4046620072877,-3310.5324266592525,-2982.9810686099627
-3266.0975801502955,-2993.5924092553905,-3167.2515173089523,-3822.257341981879,-363.4474653438083,-3731.6999619246926,-3744.3687309173074,-3941.227940438869
-3476.9134636060517,-3063.563017258659,-3179.3129591354577,-3867.1001826895126,2068.196422077388,-3512.939963006365,-3312.199580786104,-3929.501027146085
-3454.13888946762,-2967.6154718086955,-3056.721785789213,-3799.0162935995677,4981.050787117063,-3357.356209376262,-3373.1967052438436,-3933.797619510702
27632.409044159234,26103.796387871767,28305.38978400878,28349.70057565482,-1247444.8829320923,26576.436524861583,28418.559246812507,28451.76492667147
27628.800258294505,26056.928096095424,28223.797517068204,28345.58648668364,-1239518.8303006233,26545.54833400335,28326.289457685914,28453.9896321577
28139.59628084729,26419.067639244648,28598.283242734724,28996.438741381375,-1233266.2402924881,26958.458242786815,28424.99759067202,28764.23083666562
28480.717705349176,26658.31954027932,28831.860511803083,29384.030455071916,-1228183.342846285,27080.68867899994,28205.08833919726,28753.532841115783
27880.650836774148,25978.95241714669,28191.713223558138,28974.688641694636,-1223245.8444065778,26789.448336449335,29047.222412582778,29223.390465564764
27318.23781116042,25468.325472554105,27599.439551683143,28274.83334088215,-1218251.6283974918,26102.283502726263,28467.533892284613,28759.232071657083
26136.30308750106,24431.5581818074,26457.611944943113,26726.040595738625,-1211261.979895915,24635.88261555147,26848.750206478813,27184.477271345328
25574.847176719137,23908.69230708384,25928.03703926364,26025.316776451946,-1202233.734255705,24097.78081129986,26252.925859046052,26515.772418082226
25342.882143042545,23744.981744070916,25732.737615535327,25716.761921423953,-1192412.6248618923,23969.769978774042,26011.72922931399,26174.239494312293
25352.61701226287,23832.51215207603,25770.933539380145,25710.19884277752,-1182203.523517469,24056.8893056066,25992.35309488201,26108.986380278133
25747.080291792634,24240.484227147273,26147.82362063491,26200.1154419207,-1172740.1443583537,24652.860912456177,26468.53994516353,26584.442706056172
26402.247775784926,24838.298150765768,26770.575000438257,27041.850300540158,-1165242.132189108,25423.540724853287,27100.248096026247,27253.305868538446
26071.394652616582,24497.303608928458,26494.236300035613,26858.514929009078,-1159600.319114985,25059.93995717034,26710.195181654883,26916.125166843645
26345.7208142046,24603.049732395564,26642.302334792796,27279.43490953656,-1155193.1568631288,25332.626461369568,27056.282228452154,27357.618558734423
26428.922064438404,24596.482667695615,26647.883914305305,27389.684409186884,-1151157.4377036951,25341.426990898908,27144.00457928388,27556.099595798296
25658.284673710237,23876.20069102221,25894.815564763907,26447.549126841594,-1145925.9134759046,24393.180552347738,26296.116912148602,26749.492932173598
24808.73557240551,23084.66663924785,25019.860073051415,25336.861258255027,-1139073.2718532495,23314.300897972367,25251.173943221627,25774.48160912312
23860.83508278028,22221.333166803,24128.45557278447,24183.288596214377,-1130186.1593282707,22333.892403333914,24216.765346015105,24702.90170912107
23222.914911630913,21746.20300488954,23619.44885373232,23505.467694537598,-1120129.479724396,21946.77846541436,23827.826503030024,24069.675827856
23196.084844149416,21909.055519809655,23741.659065683547,23478.861602322897,-1110296.3670527004,21949.872643487062,23535.031269316678,23662.719627788523
22562.32838664885,21398.997216040734,23221.11892587121,22803.45919682458,-1101418.9544806443,21409.65260051255,23009.80408578529,22974.203158946242
22060.142308095237,20915.063244459627,22742.718808048754,22329.66885081597,-1094932.888878066,20921.664443686255,22509.799640703714,22590.058390953345
22040.593626551563,20836.89358662197,22696.96363868541,22455.968439217424,-1089735.447204709,20824.512911239173,22300.02319219231,22528.31262384681
21962.35385375528,20672.487610279582,22529.878878857242,22439.923401881126,-1085473.803139016,20688.096819437225,22197.230575153255,22501.845799909323
21715.134846694767,20365.560773397912,22173.43708449183,22180.741263982258,-1081071.297345329,20321.2600909014,21775.085252579185,22143.58582507097
21741.611015317845,20366.596522915293,22119.28695213492,22233.210281466017,-1075846.1188270263,20241.827020838624,21650.65889178589,22111.55379533593
21231.604570476222,19895.10866506037,21672.708182991366,21758.005636390066,-1069342.705887504,19974.48174698418,21881.895123521797,22144.517039011116
21403.66148732754,20077.530504849623,21842.002247855184,21844.0253724223,-1061090.7295225374,20206.249872939312,22007.013674371294,22259.018795606447
21161.935633506044,19951.772772698547,21653.35540758504,21417.11435720371,-1051793.8039196432,19972.024097375455,21616.962689657346,21799.602352620917
21104.15234897635,19870.66646963707,21698.1621439195,21264.027155833784,-1042438.5570984483,19829.982017473085,21297.143680199166,21616.207146529225
23057.4125338553,21121.88255710248,23691.563882882707,23266.12933386548,-1033908.4181485325,21247.929890111438,22261.29855027562,23479.532434678636
22568.075357307098,21199.924225257826,22983.928023742046,22982.83345957601,-1027668.7610263899,21443.80940568226,22318.24739050574,22795.15578561055
21481.686745112296,20292.569664929877,21976.677846773295,22019.452352007385,-1022964.404666163,20546.889638211927,21885.375333493925,22045.283082076698
24261.978219684912,21286.943282377324,20258.99022092414,20994.32019433286,-1020333.1746591628,21425.030496451538,20914.913912545773,23501.194148524897
46551.507914253045,28260.28374280408,-1805.9828651390271,10605.04609838198,-1005296.369974345,24752.955847053207,6134.932694917312,28891.594799340237
-13332.850171154249,-21908.66898305132,-59390.72510825284,-57079.94595472631,-377765.3589325249,-33771.70898102282,-56196.79067748133,-38891.98578418011
-109535.84555793263,-102770.9744668313,-112971.2308715661,-127067.42683374824,649900.7470076829,-117560.28307745,-121524.45979680668,-120772.38324584195
-108077.18814231141,-100833.3274763556,-103425.39500588493,-112961.34769266739,735690.7257911712,-112892.28899090108,-111187.36776748067,-113152.48006604798
-98436.40164520126,-91698.46608911268,-93979.22519461694,-102210.36046942964,727224.840007171,-102120.79996284953,-100712.65892657376,-102691.38151662488
-92293.2014998523,-85780.89351104532,-87842.01194060681,-95366.6485552034,722423.5744025409,-95142.07506116072,-93889.29350675194,-95977.23987173138
-87417.6190930513,-81001.9255926715,-82936.49124513322,-89979.36231324164,717646.460340485,-89716.32059121138,-88814.30870335939,-90811.42169029708
-82725.09509354277,-76522.0452260639,-78314.90059186812,-84791.29923991399,711547.454712443,-84703.36028679291,-84462.93736901422,-86196.33022610561
-78347.06821300622,-72424.11326913588,-74034.27778272828,-79733.42551509364,702928.7464579046,-79756.689620966,-79549.67253089904,-81458.62284491537
-74501.87462072747,-68893.14817797879,-70376.59359573522,-75138.8754738412,692113.0335388184,-75079.25392440542,-73755.04724000528,-75934.15413873171
-59577.64849392246,-55360.78991722724,-63491.032817710984,-70286.0061624522,679903.716414094,-59551.29633600478,-65548.40914616524,-64248.75351769132
-31780.63513950815,-31778.032825249447,-53335.00963218502,-61296.623432937464,664639.6500281245,-32516.055635487028,-51788.780161756826,-43400.55985197115
-55010.96859034696,-51783.51367295155,-55199.037041869175,-56895.30950724878,655052.7157762498,-55702.90456662976,-56701.943522458794,-57209.48137320905
-57546.35705894008,-53156.83196263248,-54241.21740664933,-56765.23113612906,650157.2197976708,-57063.63604323624,-56108.53610380023,-58129.1316030896
-55621.82506244333,-51242.84706633462,-52301.50076051048,-54977.17922675714,646963.1977936849,-55112.22120743824,-54406.34025423555,-56329.54579702875
-52784.25508363229,-48555.320061098406,-49643.229183016636,-51807.70153363788,642487.2120266333,-52044.57630261313,-51649.15440272144,-53587.229324995365
-46145.454969113984,-42806.295811061806,-45557.14585045009,-44051.548496007745,634866.2899131402,-45865.977628093795,-46387.161440325435,-47518.59312067935
-38943.13957798103,-35701.65451331512,-37888.98982730741,-37756.53826069168,616869.7880725935,-37129.23918010102,-38087.77347822895,-38820.34918896941
-35120.45923380548,-31881.33356495417,-32727.14071313548,-32404.120401833497,599712.7846395709,-32462.606976493786,-32627.61236102489,-34119.2005619604
-32492.047076331277,-29495.511690999498,-30301.129827901023,-29889.41740227549,588164.9012231268,-30052.210159260256,-30154.375360314967,-31351.51666415471
-30653.666562104016,-27886.23914304719,-29269.979971079854,-27891.890772752115,580290.0960914604,-28553.09349692217,-28883.899295122188,-29505.327300031902
-28421.076810607745,-25795.59208133386,-26427.001244748943,-25583.889809933316,570369.1387294978,-26050.550591652514,-25944.64900665317,-26888.16061482893
-25955.24636699754,-23818.721841578314,-23964.689579876664,-23295.33013526682,559979.0504185334,-23638.445543217822,-23416.574506174424,-24419.969646442158
-25809.621408233652,-23775.20063095831,-23813.588361794944,-23646.855187952286,555795.6865251549,-23812.374037790636,-23646.719640684663,-24578.036697113537
-26737.53751142393,-24499.538832924736,-24557.624282782082,-24978.094351010397,556275.0189038701,-25001.01981370349,-24839.394419924705,-25818.708966674923
-25490.45762483857,-23150.840293287765,-23124.824164472288,-23507.769804157433,552788.7382669859,-23489.68144640117,-23430.748144299607,-24774.763714088127
-23732.81607228605,-21360.003187186376,-21271.348110643798,-21503.362159589655,546487.2664795406,-21533.235411460162,-21654.108333911397,-23159.173153257347
-23351.89438680478,-21007.900135201577,-20856.996831142576,-21226.12192086689,541420.4497765265,-21169.08189989708,-21267.265813937644,-22769.881686252542
-23397.0263146878,-21074.69167879841,-20896.822052556672,-21218.776419723174,536744.3013009168,-21216.920057576033,-21199.84995637217,-22783.7690816815
-20738.3702915085,-19012.75299226935,-19482.964101360412,-18979.488340194803,528584.4190485775,-18897.895527579356,-19326.53161689639,-20076.119806809817
-15529.42989758309,-13968.138617875404,-18874.459458727157,-17256.64835119783,520696.01382271945,-13306.719731937861,-18134.841846931376,-15629.944544322207
-19625.98535608023,-17269.004019332002,-18744.275675701094,-18448.475961309043,515270.37658010796,-17103.18412665429,-18767.907553389086,-18850.619756153785
-18772.351849276107,-17135.916073501226,-16836.49425033538,-16342.177224302897,508386.4707556665,-16772.75787084247,-16500.108546032105,-17677.860962440376
-16981.028656541952,-15432.598773862352,-15138.042350393487,-14619.905598125188,502644.17188536376,-14937.138136571157,-14820.71048853721,-15988.095292873797
-15681.415112169809,-14178.570926966844,-13923.741086931084,-13607.226931758109,498893.7550643496,-13797.862718015094,-14106.830825682497,-15060.552021264099
-16058.700044747675,-14354.930082064704,-14053.846059996285,-14084.230346899712,497212.3432237357,-14054.362299499218,-13971.619057484437,-15283.22336600814
-16334.93102965015,-14554.1080818919,-14129.305141225108,-14140.559066879447,495495.6664725132,-14249.441555481637,-14099.430165913887,-15607.177255910123
-14618.68686134473,-12951.695893515018,-12575.409016392892,-12448.027298397268,489036.61503142864,-12523.332385706366,-12622.480153066455,-13754.93265053432
-12702.852392050903,-11373.275251214043,-10910.624622372794,-10469.030859774095,480220.61147106066,-10660.496618716512,-10735.09916435508,-11669.05987573613
-11820.80867376842,-10827.529329257319,-10090.646523129893,-9549.1408055512,472512.4607824385,-10009.55983653164,-9899.273846932454,-10726.700858914177
-11949.131969942595,-10783.634440146503,-10180.960627480177,-9618.922278566286,466438.6672406383,-10073.465617066016,-9890.102791410522,-10864.868095718673
-10238.42743477202,-9240.726104567177,-8647.807741547236,-7786.241343494505,458355.2904761657,-8205.04220876447,-7980.958786363946,-8920.709327705903
-7429.919598185457,-6708.6184830698185,-6121.408249686472,-4914.341160268174,448961.8785881512,-5265.7211812025635,-5010.145297322539,-5876.222706520464
-5686.712423774763,-5114.4753697307315,-4499.042737293057,-3254.6766389339464,442509.1893998515,-3479.248480426264,-3236.2383258413756,-4133.775045097806
-4682.1368317713495,-4088.5620794798015,-3431.1289215475554,-2354.0563515624963,438263.1710206643,-2440.649401271832,-2398.535626881174,-3356.2439651283203
-4229.141278617084,-3570.500764772645,-2940.1128043410135,-2072.1503184076864,435178.1243506484,-2038.5780384876998,-2172.1762202585815,-3140.8325691794744
-3434.065796580864,-2745.6569628011202,-2159.0928184667137,-1418.1852441069204,431413.6558058858,-1461.580869848025,-2210.407430944382,-2945.710682940553
-3835.228704070905,-3045.463985633105,-2430.673396034166,-1858.8893218843732,427767.40915996395,-1899.023773842142,-2322.167837099987,-3255.229625111562
-3935.8144647422014,-3265.636091075721,-2540.057048873743,-1734.6002032515826,421346.84820834175,-1796.413140496472,-1410.441037926008,-2393.4832610675367
-2782.707703153137,-2439.7125921690604,-1675.812280300539,-652.1014992708806,413347.52921666764,-976.7017159092939,-840.3698560012272,-1408.5386732086772
-2261.858982789563,-1999.7645996819483,-1139.965950465179,-22.980881194234826,405921.7296801228,-440.24920114444103,-180.1633721718099,-921.2191910290858
-3123.9391192939365,-2670.09420285793,-1790.7586027417565,-1066.5573507555528,401717.40774044953,-1465.2634311778238,-1010.4229860480409,-1820.605324654025
-3952.706402790849,-3382.0797475440195,-2524.2024286197266,-2208.269351159688,400058.5652920492,-2527.7180335731246,-2103.639450167888,-2844.947683378705
-3972.8077299209544,-3417.7179044546792,-2567.207043429953,-2391.8170318667544,398755.96677320637,-2572.6951192426495,-2188.156265297206,-2955.7240997273475
-3314.9118953930447,-2759.311200834345,-1961.9778579091653,-1802.639900547918,396672.0669882782,-1835.8441924713552,-1567.3575279312208,-2386.939230879536
-2186.6284204086987,-1634.508020880865,-831.2026301652659,-577.1628639197443,393735.8786029648,-502.49864742916543,-388.21386715734843,-1309.3268846846186
-746.413321792148,-275.50664703478105,580.584931059042,1000.5069003347307,388586.1527471468,1114.579408522346,1107.5266734071774,177.22999020805582
453.50661951012444,809.8142438466894,1732.3187955566682,2346.9909489112906,382688.07503421605,2365.645240797894,2326.7375327846967,1487.0017034107586
1776.5013762890594,1868.4011421290925,2853.910820375546,3785.724038041546,374492.3344488498,3634.7951160682132,3677.8736712912796,2996.915195275331
4980.273872538586,3021.0398599132895,3421.196956286207,4828.661537854467,366728.67231184803,5155.179730320815,4671.642687004176,5531.123426687089
4580.239062024746,2972.212195528671,3480.514616684057,4813.369700890267,360360.4668720998,4893.6112608987605,4557.648120847414,5301.093038682127
3567.6411862284876,3397.2013748678146,4397.764176257653,5573.737951435964,353465.868245461,4905.824498247006,4844.11136317451,4644.8467249781825
4028.7767786181066,3763.7053913368145,4771.956636388437,5828.914930354571,349078.77207901515,5374.528544023167,5217.501959758578,4836.061609825119
3880.9271940373583,3726.1744964006357,4776.957690752461,5702.687609599554,345914.3401424978,5563.165816137684,6039.13786649995,5299.220461970544
4062.971118738991,4014.8559717939934,5047.094478757936,5812.511000383762,344017.8672941569,5757.601270389743,6267.475542358239,5455.433729723911
4690.470827204175,4667.578522192081,5691.3584520209115,6313.416531915311,341912.9056617813,6343.583290797658,6530.269869649084,5752.2235778598115
5791.5409636205295,5721.939455998945,6758.246749236016,7456.157526942086,337154.56557727326,7503.083325164276,7562.994553846656,6772.87477250665
6289.586367192096,6161.60535122687,7221.328365009511,7976.674043015228,332512.6975161573,7967.480058203801,8084.835019928869,7240.849046389456
6612.0549398398725,6320.392502420582,7428.305003185174,8371.314630171983,327128.38761556894,8160.812084168079,8357.180814336753,7602.218055972364
7203.650948334951,6647.65130499925,7825.383828690625,8968.839057864388,320033.2236233773,8596.16737622465,8805.26292929938,8448.791939906077
6721.902797040995,6196.301344822627,7444.4121646934655,8476.03367053403,314697.17343278043,7960.154713025433,8269.620510055101,8009.087848477764
5555.3320865973365,5240.371126037207,6470.696294000489,7203.774263884756,311810.8948651422,6698.1033779665595,7142.2023993304465,6762.680611256743
4823.725654536625,4620.393191590556,5825.06788765057,6319.289684160962,310336.3759531807,5925.445967998938,6387.696951340302,5951.737029213924
4855.317465606611,4736.995282671764,5910.200236011646,6245.815477735596,308922.8703196021,5949.13986340852,6374.602625083178,5843.6803465909325
5355.240398666705,5221.709660034627,6397.534226423246,6620.394486266538,307501.33098790934,6517.97391593107,6800.2127179944655,6246.69726125407
6075.329581245547,5939.6443784151925,7094.1485892707715,7331.563316110871,304723.92337515764,7344.422868377413,7534.17947479384,6950.237545454758
7569.463443900226,7351.888270536438,8497.16680798377,9002.248427377548,299637.28127536364,8980.13827845978,9044.09717783425,8556.521478221519
9166.883902589325,8753.291380239418,9855.50978850422,10655.491873922409,292871.8141917363,10550.778909290675,10356.148963083047,10140.781711404794
9099.49851677951,8627.687810134143,9757.892162270844,10587.753438337124,287814.5492535103,10361.082791647292,10287.295472440543,10052.342891320935
9755.263680500095,9096.006126574473,10275.953512359993,11304.975357413758,280512.05429622624,10788.637716338737,10779.112775352434,10688.184050798533
10259.38591527543,9532.483360675746,10730.958016569493,11904.061164559913,273883.3852651282,11247.409839986358,11080.438747198205,11066.83835423924
9030.783217928605,8426.063878296176,9613.044990776456,10646.217336496804,269695.63763933186,10231.929248647648,10957.204798088176,10577.839022957138
7448.013729149476,7076.361989287776,8234.973508663825,8732.337036031648,269676.1670089988,8479.147149351775,9185.92313471518,8648.43768744974
7387.40612370742,7065.931693356484,8230.246112940367,8575.961469712318,268718.7059812979,8360.24346681789,8884.153714659275,8363.991063387948
8447.658998379018,8118.229671575362,9237.369713434251,9623.784541315865,266050.6942549369,9532.033724631416,9899.14411811484,9423.11106744653
8500.41427167051,8221.89465820964,9329.041202477645,9525.62493978918,264441.0616587736,9588.962142575649,9881.002344774199,9351.129537898581
9129.029861835297,8796.430366458837,9918.572700304328,10219.592692898237,261429.0081714422,10322.409142877208,10504.957762621576,10001.331745875767
10386.718473348184,9879.756330607808,11027.767353969626,11655.868870526436,255889.75999722368,11640.409632784082,11790.912538424833,11341.281364471419
10809.129799635499,10241.543689263519,11422.238172605983,12239.797515646322,250389.2540001828,12024.065829193918,12173.625448211213,11782.635117871221
11094.317155881203,10385.740037435782,11607.88635637518,12591.786666999804,243986.08525461648,12213.918598428485,12469.206944963196,12155.43079416966
11257.09812602913,10442.307059663464,11727.575401776005,12752.165344568202,237814.4810984262,12263.022331951652,12638.328986162785,12396.29889839224
9919.568766389624,9293.304715512786,10561.55153290322,11130.136799345259,235956.04466599046,10634.087638172554,11107.727830753545,10886.154281616211
8432.912837251788,7979.042372342199,9142.648598350934,9363.752495780005,236682.22488814138,8951.557928265887,9462.105574919144,9240.922928218148
8631.30319846468,8186.256560506416,9338.587637552759,9500.488749393611,235504.7633028042,9239.408109510783,9690.93389433052,9406.340277343756
9896.097745627048,9372.095703233499,10567.051862605265,10757.84448176215,232669.9661682928,10667.867968424922,10986.972124322434,10750.016943453928
10816.027783458703,10120.855693927791,11273.437429040903,11504.903942317702,230474.9113203024,11542.092024567886,11758.514364812872,11784.22291213274
11592.628895785194,10810.099392950011,11903.62408043479,12275.195612987969,227132.31319689867,12338.070574865153,12536.189978736162,12595.630954268388
12536.82298604463,11819.006769292231,12825.93328454392,13595.918947848317,222378.0925785778,13397.219376416004,13477.46487133397,13407.93760484195
14283.564106241043,13578.219134633371,14615.72219128639,16068.723610264075,213684.18043861073,15636.0089365014,15644.973560679238,15253.893283771235
15323.549488431076,14310.60251159541,15588.831065036764,17008.80716725433,204878.18661987968,16616.682577891508,16752.19391867146,16339.638422122109
15283.394688506669,14188.071300464333,15421.408837835363,16820.52793875814,198866.80294434913,16340.145674854633,16653.247041167167,16431.683642365097
14500.823663464456,13496.097608114767,14709.74827850872,15835.934320607514,195369.23311555618,15326.659931766102,15785.337269617303,15605.036443919234
13237.68039985688,12362.859374399472,13582.863794900826,14297.266926643497,195312.88790321164,13829.064638511394,14289.852763506176,14095.728176077595
13629.274266041291,12756.94191130856,13944.383691299648,14607.45978767157,193565.15086568054,14218.947721219214,14564.204166854615,14434.098254861601
12896.939595997974,12221.47004928178,13345.648964384513,13628.752056820958,193615.80484504486,13457.001362396346,13676.48301162105,13480.401795020618
11059.676631709968,10661.579604647413,11727.877513364016,11443.98356770887,196695.56472818227,11437.790658869897,11284.06633308687,11038.373068081797
21797.452409794205,16865.101902641007,10936.674250911747,15164.389764861844,195086.76299432572,18540.61069806479,13915.897860400728,17399.033662333677
21494.44572850375,16714.60685143544,10805.369049257657,15627.65353168227,191289.88415757986,18774.380710452504,14694.016373040387,18291.906471615075
9126.247546175146,8810.417610801233,10028.915805111174,9807.744813242112,190501.47009719396,9177.567136889265,9263.750476757763,9198.542115132208
6339.659176709771,6339.820718836447,7470.937961782794,7239.190316248452,190384.83976832498,6447.4784233995015,7402.391610131541,6905.947814937797
5327.0074498480535,5269.349853051011,6318.616522554832,6379.405512072204,188756.75021470338,5438.139219975041,6498.719933360291,6078.156948518066
6586.579106681747,6330.905640639481,7355.657179053407,7385.162955441512,183261.97841032688,6650.161600656807,7584.4756810716935,7406.792233548069
7997.761191948259,7540.328262841562,8705.200198427076,8774.395435545419,178680.9204417374,8171.598184998904,8966.479229871708,8711.1560565838
8102.180934584874,7775.2120558343595,8907.86668718938,8803.17390728154,177495.91771203466,8315.800300514617,8773.746010258095,8393.41987556481
6191.276870394417,6243.172397019225,7248.110883459158,6560.90549095656,180879.06867237017,6227.112925404683,6619.38699755515,6180.634028066124
6243.212003973895,6288.80104015104,7298.411226997443,6705.228771285911,180812.74006207287,6538.0089385771425,7168.071786102373,6566.586921260168
7003.59613194142,7094.755778459075,8031.251403509057,7644.148186359846,178095.21654660814,7484.9550715503865,7888.769312379183,7369.804399153101
7401.34088247444,7353.364635912236,8453.462698854331,8099.6874901736155,174938.0895451475,7825.853523723432,8133.433394045511,7647.625173841545
7686.939798076113,7474.78101672465,8654.71545218915,8470.629547719553,170593.58914349414,8016.08512071619,8366.596958579321,7980.527768612199
7773.368970863288,7420.98354439158,8626.424676962546,8642.865900640085,165362.1133931093,8123.380244584521,8628.20549821225,8292.404230881657
7791.4707143083215,7444.283297461225,8638.185971122119,8605.677226819156,160767.56658778805,7907.019768377679,8266.13031230055,8222.52092761785
6383.936577141401,6362.905731091858,7356.93539526753,6968.748769012338,159022.87582768593,6392.096580698591,7153.686854675063,7072.469717253523
6559.274427935859,6377.879757109593,7566.053126060258,7144.410219717043,156830.61288897227,6609.252177975548,7405.946377729881,7169.726422263018
7555.929436464445,7360.717678668385,8619.20521943469,8303.878048862738,154085.8008848587,7941.538332984957,8563.77533367349,8141.623819217086
8356.937771899713,8210.798641371104,9468.381003040675,9174.96581678983,152212.55644571967,9036.20164224776,9569.806883881334,8855.226465092826
9072.181714602571,9015.678967154672,10204.576070084528,9939.914603286306,150090.803332272,9781.084092477628,10121.942647139891,9486.603243381716
8414.246537967992,8460.775357998093,9692.068495831627,9100.097794771544,149241.44367200788,9065.875041303196,9358.742124229757,8639.657730014093
8358.552354563319,8385.849004814343,9653.292712513445,9059.0490893948,146859.17718473915,8885.477886646288,9164.548705390713,8610.464197651949
8352.054518705932,8281.487340973108,9551.95724153897,9066.106421182049,142922.82071154937,8706.212417022616,8995.497132058721,8643.259871574468
8540.982586845988,8296.405234907143,9593.808503899956,9407.071142657747,137482.86168579198,9041.455152231443,9585.12358886245,9057.650126007677
9198.253182827233,8787.734125529387,10098.941484314535,10308.133139236801,131908.5645442754,9704.56322274584,10291.678627307818,9767.508947341179
10565.163603523863,9950.863899037737,11201.02506189741,11946.21884365243,126264.45203176793,10970.608845358249,11540.091200771974,11145.807035609614
11210.752506282064,10655.128483166889,11812.724738880032,12146.528298412915,122423.19818676822,11811.038518899644,12301.19136397171,11930.310979023692
11216.294808622042,10690.069312216016,11663.969865675783,12088.391788289999,121798.91402907204,11625.40927001898,11957.977977898321,11851.597043332004
10528.979971214605,9963.185413344618,10788.433075548513,11396.610547046701,123963.84902232047,10528.810076996713,10725.714838999484,10778.502205309866
9461.178042338259,9272.752715951065,10376.939472218903,9912.66529490285,125023.59402267355,9825.86256642593,10091.315314769003,9700.165771408312
9543.473171552192,9432.987149926761,10507.329157253655,10048.953140550919,123694.24526130594,10044.438561867311,10261.375289374351,9818.844765548667
11049.776549664108,10725.6556572462,11839.125030095034,11753.458639601158,118563.1335339956,11689.158981923378,11878.818872947653,11479.931852775218
11900.675504688232,11387.186298387445,12601.342516505625,12763.435575608339,112345.7336879801,12553.000295223945,12838.167920486318,12532.494276767946
12927.673794685106,12183.136589328657,13467.444222233258,14075.119409545092,105314.89552994445,13575.912289242828,13950.009293312025,13724.006067159426
12774.926564847498,11895.491494099362,13102.970242976335,14632.929345841534,101136.33216840029,13004.408014261287,13384.136249089002,13131.636214710576
12181.522397477878,11580.737370768482,12672.99186803752,13254.318599417733,98646.65871808305,12517.22780814956,12801.869383420322,12581.853901602553
13087.138403906189,12416.348426380377,13406.061532870946,13881.069168115682,95515.70229524001,13281.17998032119,13212.14367099115,13312.504013194455
14102.717738896717,13250.711559642397,14354.847221413125,14966.441660697968,92162.05881882459,14510.867014221645,14653.599702895635,14515.080029718454
14009.400698590973,13213.571629592232,14348.671828042647,14858.741936208706,90503.22177441977,14749.94165934135,15355.323527041706,14927.582733554911
14514.78803545487,13755.843230982187,14860.906319396421,15223.236169783127,89183.68251115642,15190.878042613793,15453.533408797544,15096.258930311926
15774.630738202979,14872.903375662892,16057.771731283676,16598.26476150457,85163.97627985105,16506.29853054857,16492.172567871963,16342.490661922815
12816.806879339085,12129.072748241379,13297.54842593299,13130.867590692164,87456.63643287681,13109.256854710758,13272.662446865797,13161.799175668963
12262.019167339367,11641.39564857056,12468.601019403628,12862.206743129667,85587.02699162811,12507.778702952557,12878.505716466403,13054.437925414823
13026.57160745532,12418.806964060244,13206.938184706509,14086.544492707864,79855.23873923346,13465.180690920984,13822.620619701767,13862.873768473291
14323.648049166513,13775.51504541745,14626.496165213597,16448.614146127817,72469.719510464,15027.667839877628,15342.993654306236,15000.197178177397
15703.314331864174,14915.378501017098,15870.685574033356,17210.869368712913,65260.99035134353,16381.98979974867,16756.150047799034,16557.056084448137
10032.46284704491,9853.564671522065,10586.567090571247,10278.507800250009,75041.24164834246,9885.468395738237,10353.980747694834,10207.970878366701
8565.035964556504,8406.198602308083,9320.027913936588,8658.01673716263,79241.51260585152,8475.78326351395,8954.320883222637,8559.011735036664
10519.081469585159,10146.912552329974,11199.563310800382,10888.608289891126,76178.2703123577,10827.14178715057,11163.119969688094,10616.769061621293
11511.86805929053,11152.995565278776,11963.792695942364,11965.808777304686,74456.00323498994,11918.68207597817,12046.204652068263,11733.552502918901
13484.339991217625,12997.125810915895,13952.374065067008,14209.575251551258,69935.40792271309,14192.651129941718,14152.89742907189,13890.053182650736
16723.438089643314,15807.631438769822,16934.33959997873,17650.483436500013,61234.29112091847,17444.2590093982,16770.746663564845,16837.518493059586
16452.213396643667,15519.215206865483,16611.950092136685,17136.19657536561,56778.56701220758,16677.0638011939,15713.693364152772,15953.501954043604
15255.59891068752,14410.187583910767,15567.853183741914,16215.418793238321,52334.743027463555,15944.577956837893,16565.28455915916,16305.157082595048
